51,13,19000,513945231
51,14,19000,15417
52,13,19000,15417
52,13,19000,15417
51,13,19000,15417
51,13,19000,15417
52,13,19000,15417
52,13,19000,15417
52,13,19000,15417
52,13,19000,15417
52,14,19000,15417
53,14,19000,31039
53,15,19000,31039
53,14,19000,31039
53,14,19000,31039
53,15,19000,31039
53,15,19000,31039
52,15,19000,31039
52,15,19000,31039
52,15,19000,31039
53,15,19000,31039
53,16,19000,46673
53,16,19000,47756
53,16,19000,48771
53,16,19000,49772
53,16,19000,51769
53,16,19000,52781
53,16,19000,53784
53,16,19000,54775
53,16,19000,55788
53,16,19000,55788
53,16,19000,56973
53,16,19000,57977
53,16,19000,58979
52,16,19000,58979
52,16,19000,59982
52,16,19000,60985
52,16,19000,61987
51,16,19000,62992
52,16,19000,63994
52,16,19000,65999
52,16,19000,65999
51,16,19000,68009
51,16,19000,69175
51,16,19000,69175
51,16,19000,69175
51,16,19000,69175
49,15,19000,84850
49,16,19000,84850
49,16,19000,84850
50,16,19000,84850
50,16,19000,84850
50,16,19000,84850
50,16,19000,84850
50,16,19000,84850
50,16,19000,84850
50,16,19000,84850
50,16,19000,100460
50,16,19000,100460
50,16,19000,100460
50,15,19000,100460
50,15,19000,100460
50,15,19000,100460
50,15,19000,100460
50,15,19000,100460
50,15,19000,100460
50,15,19000,100460
50,14,19000,116095
49,14,19000,116095
49,14,19000,116095
49,14,19000,116095
49,14,19000,116095
49,14,19000,116095
49,14,19000,116095
48,13,19000,116095
48,13,19000,116095
48,13,19000,116095
48,13,19000,116095
49,13,19000,131682
50,13,19000,131682
50,13,19000,131682
50,13,19000,131682
49,13,19000,131682
49,13,19000,131682
49,13,19000,131682
49,12,19000,131682
49,12,19000,131682
49,13,19000,131682
50,12,19000,147340
51,12,19000,147340
51,12,19000,147340
51,12,19000,147340
52,12,19000,147340
52,12,19000,147340
52,12,19000,147340
52,12,19000,147340
52,12,19000,147340
52,12,19000,147340
52,12,19000,147340
51,13,19000,162960
51,13,19000,162960
51,13,19000,162960
52,13,19000,162960
52,13,19000,162960
52,13,19000,162960
52,13,19000,162960
51,13,19000,162960
51,13,19000,162960
51,13,19000,162960
51,13,19000,178598
51,12,19000,178598
51,12,19000,178598
51,12,19000,178598
51,12,19000,178598
51,12,19000,178598
51,12,19000,178598
51,12,19000,178598
51,12,19000,178598
51,12,19000,178598
51,13,19000,178598
51,13,19000,194188
51,13,19000,194188
51,13,19000,194188
52,12,19000,194188
52,12,19000,194188
52,12,19000,194188
52,13,19000,194188
52,13,19000,194188
52,13,19000,194188
51,13,19000,194188
51,13,19000,209847
51,12,19000,209847
50,12,19000,209847
50,12,19000,209847
50,12,19000,209847
50,12,19000,209847
50,12,19000,209847
49,12,19000,209847
49,12,19000,209847
49,12,19000,209847
50,13,19000,225475
50,13,19000,225475
50,13,19000,225475
50,13,19000,225475
50,13,19000,225475
50,13,19000,225475
50,13,19000,225475
51,13,19000,225475
51,13,19000,225475
51,13,19000,225475
50,13,19000,225475
50,14,19000,241102
50,14,19000,241102
50,14,19000,241102
50,14,19000,241102
50,14,19000,241102
50,14,19000,241102
51,14,19000,241102
51,14,19000,241102
51,14,19000,241102
51,14,19000,241102
50,15,19000,256731
50,15,19000,256731
50,15,19000,256731
50,15,19000,256731
50,15,19000,256731
50,15,19000,256731
50,15,19000,256731
50,15,19000,256731
50,15,19000,256731
50,15,19000,256731
50,15,19000,256731
50,15,19000,272355
50,15,19000,272355
51,15,19000,272355
51,15,19000,272355
51,15,19000,272355
51,15,19000,272355
51,15,19000,272355
51,15,19000,272355
50,15,19000,272355
50,15,19000,272355
51,16,19000,287981
51,15,19000,287981
51,15,19000,287981
50,16,19000,287981
50,16,19000,287981
50,16,19000,287981
50,16,19000,287981
50,16,19000,287981
50,16,19000,287981
50,16,19000,287981
50,16,19000,303610
51,16,19000,303610
51,16,19000,303610
51,16,19000,303610
51,16,19000,303610
52,16,19000,303610
52,16,19000,303610
51,16,19000,303610
51,16,19000,303610
51,16,19000,303610
51,16,19000,303610
49,16,19000,319242
49,16,19000,319242
48,16,19000,319242
48,16,19000,319242
49,16,19000,319242
49,16,19000,319242
49,15,19000,319242
49,15,19000,319242
48,15,19000,319242
48,15,19000,319242
48,14,19000,334855
49,14,19000,334855
49,14,19000,334855
49,14,19000,334855
50,14,19000,334855
50,14,19000,334855
50,14,19000,334855
50,14,19000,334855
50,14,19000,334855
50,14,19000,334855
50,15,19000,334855
51,14,19000,350456
51,14,19000,350456
51,15,19000,350456
51,15,19000,350456
51,15,19000,350456
51,15,19000,350456
51,15,19000,350456
51,15,19000,350456
51,15,19000,350456
51,14,19000,350456
52,15,19000,366117
53,16,19000,366117
53,16,19000,366117
53,16,19000,366117
52,16,19000,366117
52,16,19000,366117
53,16,19000,366117
53,16,19000,366117
53,16,19000,366117
52,16,19000,366117
52,16,19000,366117
50,17,19000,381742
50,17,19000,381742
49,18,19000,381742
49,18,19000,381742
49,18,19000,381742
49,18,19000,381742
49,18,19000,381742
49,18,19000,381742
50,18,19000,381742
50,18,19000,381742
50,18,19000,397372
51,18,19000,397372
50,18,19000,397372
50,18,19000,397372
50,18,19000,397372
50,18,19000,397372
50,18,19000,397372
50,18,19000,397372
50,19,19000,397372
50,19,19000,397372
50,20,19000,412994
50,20,19000,412994
50,19,19000,412994
50,19,19000,412994
50,19,19000,412994
50,19,19000,412994
49,19,19000,412994
49,19,19000,412994
49,19,19000,412994
49,19,19000,412994
49,19,19000,412994
49,19,19000,428626
49,18,19000,428626
50,18,19000,428626
50,18,19000,428626
50,18,19000,428626
50,18,19000,428626
50,17,19000,428626
51,17,19000,428626
52,17,19000,428626
52,17,19000,428626
52,18,19000,444250
51,18,19000,444250
51,18,19000,444250
51,18,19000,444250
51,18,19000,444250
51,18,19000,444250
51,18,19000,444250
51,18,19000,444250
51,18,19000,444250
50,18,19000,444250
50,17,19000,444250
51,17,19000,459874
52,17,19000,459874
52,17,19000,459874
52,17,19000,459874
51,17,19000,459874
51,17,19000,459874
51,17,19000,459874
52,17,19000,459874
52,17,19000,459874
52,17,19000,459874
53,16,19000,475501
53,16,19000,475501
53,16,19000,475501
53,16,19000,475501
53,16,19000,475501
53,16,19000,475501
53,16,19000,475501
53,16,19000,475501
53,16,19000,475501
53,15,19000,475501
53,15,19000,475501
52,15,19000,491127
51,15,19000,491127
51,15,19000,491127
51,15,19000,491127
51,15,19000,491127
51,15,19000,491127
52,14,19000,491127
52,14,19000,491127
52,14,19000,491127
52,14,19000,491127
50,13,19000,506757
49,13,19000,506757
49,13,19000,506757
49,13,19000,506757
49,13,19000,506757
50,13,19000,506757
50,13,19000,506757
49,13,19000,506757
49,13,19000,506757
49,13,19000,506757
48,13,19000,522349
49,13,19000,522349
49,13,19000,522349
48,13,19000,522349
48,13,19000,522349
48,13,19000,522349
49,13,19000,522349
49,13,19000,522349
49,13,19000,522349
49,13,19000,522349
49,13,19000,522349
50,13,19000,538009
49,12,19000,538009
50,12,19000,538009
50,12,19000,538009
50,12,19000,538009
50,12,19000,538009
50,13,19000,538009
50,13,19000,538009
49,13,19000,538009
49,13,19000,538009
50,13,19000,553637
51,13,19000,553637
51,13,19000,553637
50,13,19000,553637
50,13,19000,553637
51,13,19000,553637
51,13,19000,553637
51,13,19000,553637
51,13,19000,553637
51,13,19000,553637
51,13,19000,553637
51,13,19000,569232
50,13,19000,569232
50,13,19000,569232
51,13,19000,569232
51,13,19000,569232
51,13,19000,569232
51,13,19000,569232
51,13,19000,569232
51,13,19000,569232
51,13,19000,569232
50,12,19000,584856
49,12,19000,584856
49,12,19000,584856
50,12,19000,584856
50,12,19000,584856
50,12,19000,584856
50,12,19000,584856
50,12,19000,584856
50,12,19000,584856
50,12,19000,584856
49,13,19000,600514
50,13,19000,600514
50,13,19000,600514
50,12,19000,600514
50,12,19000,600514
50,12,19000,600514
50,12,19000,600514
50,13,19000,600514
50,13,19000,600514
50,13,19000,600514
51,13,19000,600514
50,13,19000,616142
50,13,19000,616142
51,13,19000,616142
50,14,19000,616142
50,14,19000,616142
50,14,19000,616142
50,14,19000,616142
49,14,19000,616142
48,14,19000,616142
48,14,19000,616142
48,14,19000,631770
48,14,19000,631770
48,15,19000,631770
49,15,19000,631770
49,15,19000,631770
50,16,19000,631770
50,16,19000,631770
50,16,19000,631770
50,16,19000,631770
50,16,19000,631770
50,16,19000,631770
49,17,19000,647394
50,17,19000,647394
50,17,19000,647394
50,17,19000,647394
49,17,19000,647394
50,16,19000,647394
50,16,19000,647394
51,16,19000,647394
51,16,19000,647394
51,16,19000,647394
52,16,19000,663021
52,16,19000,663021
52,16,19000,663021
51,16,19000,663021
51,16,19000,663021
51,16,19000,663021
51,16,19000,663021
51,16,19000,663021
51,16,19000,663021
50,16,19000,663021
50,16,19000,663021
52,16,19000,678652
52,16,19000,678652
52,16,19000,678652
52,16,19000,678652
52,16,19000,678652
52,16,19000,678652
52,15,19000,678652
51,16,19000,678652
51,16,19000,678652
52,16,19000,678652
50,14,19000,694277
50,14,19000,694277
50,14,19000,694277
49,14,19000,694277
49,14,19000,694277
49,14,19000,694277
49,14,19000,694277
49,14,19000,694277
49,14,19000,694277
50,14,19000,694277
50,13,19000,709901
50,14,19000,709901
50,13,19000,709901
50,13,19000,709901
50,13,19000,709901
50,13,19000,709901
51,13,19000,709901
51,13,19000,709901
51,13,19000,709901
51,13,19000,709901
52,14,19000,709901
52,13,19000,725528
52,13,19000,725528
52,13,19000,725528
52,13,19000,725528
52,13,19000,725528
52,13,19000,725528
51,13,19000,725528
51,13,19000,725528
51,12,19000,725528
51,12,19000,725528
51,12,19000,741154
51,12,19000,741154
51,13,19000,741154
51,13,19000,741154
51,12,19000,741154
51,12,19000,741154
51,12,19000,741154
51,12,19000,741154
51,12,19000,741154
51,12,19000,741154
52,12,19000,741154
51,12,19000,756787
51,12,19000,756787
51,12,19000,756787
51,12,19000,756787
50,12,19000,756787
50,12,19000,756787
51,12,19000,756787
51,12,19000,756787
51,12,19000,756787
51,12,19000,756787
52,11,19000,772407
51,11,19000,772407
51,11,19000,772407
51,11,19000,772407
51,11,19000,772407
51,11,19000,772407
51,11,19000,772407
51,11,19000,772407
51,11,19000,772407
51,11,19000,772407
51,11,19000,788035
50,11,19000,788035
50,11,19000,788035
49,11,19000,788035
49,11,19000,788035
49,11,19000,788035
49,11,19000,788035
49,11,19000,788035
49,12,19000,788035
49,12,19000,788035
50,11,19000,788035
50,11,19000,803663
50,11,19000,803663
49,11,19000,803663
49,11,19000,803663
49,11,19000,803663
49,11,19000,803663
48,11,19000,803663
48,11,19000,803663
48,11,19000,803663
48,11,19000,803663
49,11,19000,819300
49,11,19000,819300
49,11,19000,819300
49,11,19000,819300
49,11,19000,819300
49,11,19000,819300
48,11,19000,819300
48,11,19000,819300
48,11,19000,819300
48,11,19000,819300
49,11,19000,819300
48,12,19000,834914
49,12,19000,834914
49,12,19000,834914
50,12,19000,834914
50,12,19000,834914
50,12,19000,834914
50,12,19000,834914
50,12,19000,834914
50,12,19000,834914
50,12,19000,834914
50,12,19000,850541
51,12,19000,850541
51,12,19000,850541
51,12,19000,850541
51,12,19000,850541
52,12,19000,850541
52,12,19000,850541
52,12,19000,850541
52,12,19000,850541
52,12,19000,850541
52,12,19000,850541
52,11,19000,866168
52,12,19000,866168
52,12,19000,866168
52,11,19000,866168
53,11,19000,866168
53,11,19000,866168
53,11,19000,866168
54,11,19000,866168
54,11,19000,866168
53,11,19000,866168
52,12,19000,881794
52,11,19000,881794
52,11,19000,881794
52,11,19000,881794
52,11,19000,881794
51,11,19000,881794
51,11,19000,881794
51,12,19000,881794
51,12,19000,881794
52,11,19000,881794
52,10,19000,897428
52,10,19000,897428
52,10,19000,897428
51,10,19000,897428
51,10,19000,897428
51,10,19000,897428
51,9,19000,897428
51,9,19000,897428
51,9,19000,897428
51,9,19000,897428
51,10,19000,897428
50,10,19000,913047
51,10,19000,913047
51,10,19000,913047
51,10,19000,913047
51,10,19000,913047
51,10,19000,913047
51,10,19000,913047
51,10,19000,913047
52,10,19000,913047
52,10,19000,913047
54,10,19000,928675
53,10,19000,928675
53,10,19000,928675
54,10,19000,928675
54,10,19000,928675
54,10,19000,928675
53,10,19000,928675
53,10,19000,928675
52,10,19000,928675
52,10,19000,928675
52,10,19000,928675
54,10,19000,944304
53,10,19000,944304
53,10,19000,944304
53,10,19000,944304
53,10,19000,944304
53,10,19000,944304
53,10,19000,944304
53,10,19000,944304
53,10,19000,944304
53,10,19000,944304
54,9,19000,959928
54,10,19000,959928
54,10,19000,959928
54,10,19000,959928
54,10,19000,959928
54,10,19000,959928
54,10,19000,959928
54,10,19000,959928
54,10,19000,959928
54,10,19000,959928
53,10,19000,975555
52,10,19000,975555
52,10,19000,975555
52,10,19000,975555
52,9,19000,975555
52,9,19000,975555
52,9,19000,975555
51,9,19000,975555
51,9,19000,975555
51,9,19000,975555
51,9,19000,975555
52,10,19000,991181
51,9,19000,991181
51,9,19000,991181
51,9,19000,991181
51,9,19000,991181
51,9,19000,991181
51,9,19000,991181
52,9,19000,991181
52,9,19000,991181
52,9,19000,991181
51,10,19000,1006816
52,10,19000,1006816
53,10,19000,1006816
53,10,19000,1006816
52,10,19000,1006816
52,10,19000,1006816
52,10,19000,1006816
52,10,19000,1006816
51,10,19000,1006816
51,10,19000,1006816
51,10,19000,1006816
51,10,19000,1022404
51,11,19000,1022404
51,11,19000,1022404
51,10,19000,1022404
51,10,19000,1022404
50,11,19000,1022404
50,11,19000,1022404
50,11,19000,1022404
50,11,19000,1022404
50,11,19000,1022404
52,11,19000,1038063
52,11,19000,1038063
52,11,19000,1038063
52,11,19000,1038063
52,11,19000,1038063
52,11,19000,1038063
52,11,19000,1038063
52,11,19000,1038063
52,11,19000,1038063
52,11,19000,1038063
53,11,19000,1038063
53,11,19000,1053691
53,11,19000,1054907
54,11,19000,1056897
54,11,19000,1056897
53,11,19000,1057900
53,11,19000,1058902
53,11,19000,1059905
53,11,19000,1059905
53,11,19000,1061317
53,11,19000,1061568
54,11,19000,1062550
54,11,19000,1063556
54,11,19000,1064558
54,11,19000,1065561
53,11,19000,1065561
53,11,19000,1066563
52,12,19000,1067568
52,12,19000,1068568
53,12,19000,1069490
53,12,19000,1069490
53,13,19000,1085147
53,14,19000,1085147
53,14,19000,1085147
53,14,19000,1085147
52,14,19000,1085147
52,14,19000,1085147
52,14,19000,1085147
53,14,19000,1085147
53,14,19000,1085147
53,15,19000,1085147
53,15,19000,1085147
52,15,19000,1100775
52,15,19000,1100775
51,16,19000,1100775
51,16,19000,1100775
51,16,19000,1100775
49,16,19000,1100775
49,16,19000,1100775
49,16,19000,1100775
49,16,19000,1100775
49,16,19000,1100775
50,16,19000,1116368
50,16,19000,1116368
51,16,19000,1116368
51,16,19000,1116368
51,16,19000,1116368
51,16,19000,1116368
51,16,19000,1116368
51,16,19000,1116368
51,16,19000,1116368
52,16,19000,1116368
52,16,19000,1116368
52,16,19000,1132027
51,16,19000,1132027
51,16,19000,1132027
51,16,19000,1132027
52,16,19000,1132027
51,16,19000,1132027
51,16,19000,1132027
51,16,19000,1132027
51,16,19000,1132027
51,16,19000,1132027
53,15,19000,1147662
51,16,19000,1147662
51,16,19000,1147662
51,16,19000,1147662
51,16,19000,1147662
50,16,19000,1147662
51,16,19000,1147662
51,16,19000,1147662
51,16,19000,1147662
51,16,19000,1147662
51,16,19000,1147662
50,15,19000,1163248
50,16,19000,1163248
51,15,19000,1163248
51,15,19000,1163248
50,15,19000,1163248
50,15,19000,1163248
50,15,19000,1163248
50,15,19000,1163248
50,15,19000,1163248
49,15,19000,1163248
50,16,19000,1178906
51,16,19000,1178906
51,16,19000,1178906
51,16,19000,1178906
51,16,19000,1178906
51,16,19000,1178906
51,16,19000,1178906
52,16,19000,1178906
52,16,19000,1178906
51,16,19000,1178906
52,16,19000,1194534
52,16,19000,1194534
52,16,19000,1194534
52,16,19000,1194534
52,16,19000,1194534
52,16,19000,1194534
52,16,19000,1194534
52,16,19000,1194534
53,17,19000,1194534
53,16,19000,1194534
53,16,19000,1194534
51,16,19000,1210160
52,16,19000,1210160
52,16,19000,1210160
52,16,19000,1210160
52,16,19000,1210160
52,16,19000,1210160
52,16,19000,1210160
52,16,19000,1210160
51,16,19000,1210160
51,16,19000,1210160
52,16,19000,1225787
51,16,19000,1225787
51,16,19000,1225787
51,16,19000,1225787
51,16,19000,1225787
51,16,19000,1225787
50,16,19000,1225787
50,16,19000,1225787
51,16,19000,1225787
51,16,19000,1225787
51,16,19000,1225787
52,16,19000,1241418
51,17,19000,1241418
51,17,19000,1241418
51,17,19000,1241418
50,17,19000,1241418
50,17,19000,1241418
50,17,19000,1241418
50,17,19000,1241418
50,17,19000,1241418
50,17,19000,1241418
49,17,19000,1257041
49,17,19000,1257041
48,17,19000,1257041
48,17,19000,1257041
48,17,19000,1257041
49,18,19000,1257041
49,18,19000,1257041
50,18,19000,1257041
50,18,19000,1257041
50,18,19000,1257041
49,18,19000,1257041
50,19,19000,1272669
50,19,19000,1272669
50,19,19000,1272669
50,19,19000,1272669
50,19,19000,1272669
50,19,19000,1272669
50,20,19000,1272669
50,20,19000,1272669
49,19,19000,1272669
49,19,19000,1272669
47,19,19000,1288295
48,20,19000,1288295
48,20,19000,1288295
48,20,19000,1288295
49,20,19000,1288295
49,20,19000,1288295
50,20,19000,1288295
50,19,19000,1288295
50,19,19000,1288295
50,19,19000,1288295
49,18,19000,1303922
49,19,19000,1303922
50,19,19000,1303922
50,19,19000,1303922
49,19,19000,1303922
49,19,19000,1303922
49,19,19000,1303922
48,19,19000,1303922
48,19,19000,1303922
49,18,19000,1303922
49,18,19000,1303922
50,18,19000,1319516
50,18,19000,1319516
50,18,19000,1319516
50,18,19000,1319516
50,18,19000,1319516
50,18,19000,1319516
51,19,19000,1319516
51,19,19000,1319516
51,19,19000,1319516
51,19,19000,1319516
50,19,19000,1335173
48,19,19000,1335173
48,19,19000,1335173
48,19,19000,1335173
48,19,19000,1335173
49,19,19000,1335173
49,19,19000,1335173
49,19,19000,1335173
49,19,19000,1335173
49,19,19000,1335173
49,19,19000,1335173
49,20,19000,1350768
49,20,19000,1350768
50,20,19000,1350768
49,20,19000,1350768
49,20,19000,1350768
49,20,19000,1350768
50,20,19000,1350768
50,20,19000,1350768
50,20,19000,1350768
50,20,19000,1350768
50,20,19000,1366431
50,20,19000,1366431
50,20,19000,1366431
50,20,19000,1366431
51,20,19000,1366431
51,20,19000,1366431
51,20,19000,1366431
51,20,19000,1366431
51,20,19000,1366431
50,19,19000,1366431
50,18,19000,1382053
49,18,19000,1382053
50,18,19000,1382053
51,18,19000,1382053
51,18,19000,1382053
51,18,19000,1382053
50,18,19000,1382053
50,18,19000,1382053
50,18,19000,1382053
50,18,19000,1382053
50,18,19000,1382053
49,17,19000,1397680
49,16,19000,1397680
50,16,19000,1397680
50,16,19000,1397680
50,16,19000,1397680
50,16,19000,1397680
50,16,19000,1397680
50,16,19000,1397680
50,17,19000,1397680
50,17,19000,1397680
51,16,19000,1413311
51,16,19000,1413311
51,16,19000,1413311
51,16,19000,1413311
51,16,19000,1413311
51,16,19000,1413311
51,16,19000,1413311
51,16,19000,1413311
51,16,19000,1413311
51,16,19000,1413311
51,15,19000,1413311
51,14,19000,1428937
51,14,19000,1428937
51,14,19000,1428937
52,13,19000,1428937
52,13,19000,1428937
51,13,19000,1428937
51,13,19000,1428937
51,13,19000,1428937
51,13,19000,1428937
51,13,19000,1428937
52,13,19000,1444564
54,13,19000,1444564
53,13,19000,1444564
53,13,19000,1444564
53,13,19000,1444564
53,13,19000,1444564
53,13,19000,1444564
53,13,19000,1444564
52,13,19000,1444564
53,13,19000,1444564
53,13,19000,1444564
51,12,19000,1460154
50,12,19000,1460154
51,12,19000,1460154
51,12,19000,1460154
50,12,19000,1460154
50,12,19000,1460154
50,12,19000,1460154
50,12,19000,1460154
51,11,19000,1460154
51,11,19000,1460154
52,11,19000,1475813
51,11,19000,1475813
51,11,19000,1475813
51,10,19000,1475813
51,10,19000,1475813
50,10,19000,1475813
50,10,19000,1475813
50,10,19000,1475813
50,10,19000,1475813
50,10,19000,1475813
50,10,19000,1491409
51,10,19000,1491409
51,10,19000,1491409
51,10,19000,1491409
51,10,19000,1491409
51,10,19000,1491409
51,9,19000,1491409
51,9,19000,1491409
51,9,19000,1491409
51,9,19000,1491409
51,9,19000,1491409
52,9,19000,1507068
52,10,19000,1507068
52,10,19000,1507068
52,10,19000,1507068
52,10,19000,1507068
53,9,19000,1507068
53,9,19000,1507068
53,9,19000,1507068
52,9,19000,1507068
52,9,19000,1507068
53,8,19000,1522695
53,8,19000,1522695
53,8,19000,1522695
53,8,19000,1522695
52,8,19000,1522695
52,8,19000,1522695
52,8,19000,1522695
52,8,19000,1522695
52,8,19000,1522695
53,7,19000,1522695
53,7,19000,1522695
52,5,19000,1538323
52,5,19000,1538323
52,6,19000,1538323
52,5,19000,1538323
52,5,19000,1538323
52,5,19000,1538323
52,5,19000,1538323
52,5,19000,1538323
52,5,19000,1538323
51,5,19000,1538323
49,3,19000,1553956
49,3,19000,1553956
49,3,19000,1553956
50,3,19000,1553956
50,3,19000,1553956
50,3,19000,1553956
50,3,19000,1553956
50,3,19000,1553956
50,3,19000,1553956
50,3,19000,1553956
51,2,19000,1569569
51,2,19000,1569569
51,2,19000,1569569
51,2,19000,1569569
51,2,19000,1569569
51,2,19000,1569569
51,2,19000,1569569
51,2,19000,1569569
51,2,19000,1569569
50,1,19000,1569569
51,1,19000,1569569
50,1,19000,1585168
52,1,19000,1585168
52,1,19000,1585168
52,1,19000,1585168
52,1,19000,1585168
52,1,19000,1585168
53,1,19000,1585168
53,1,19000,1585168
53,1,19000,1585168
52,1,19000,1585168
52,0,19000,1600826
52,0,19000,1600826
51,0,19000,1600826
51,0,19000,1600826
50,0,19000,1600826
50,0,19000,1600826
51,0,19000,1600826
51,0,19000,1600826
51,0,19000,1600826
50,1,19000,1600826
50,0,19000,1600826
51,0,19000,1616452
51,0,19000,1616452
51,0,19000,1616452
50,0,19000,1616452
50,0,19000,1616452
50,0,19000,1616452
51,0,19000,1616452
51,0,19000,1616452
51,0,19000,1616452
51,0,19000,1616452
50,0,19000,1632048
51,0,19000,1632048
51,0,19000,1632048
51,0,19000,1632048
51,0,19000,1632048
51,0,19000,1632048
51,0,19000,1632048
51,0,19000,1632048
50,0,19000,1632048
50,0,19000,1632048
49,0,19000,1632048
50,0,19000,1647711
50,0,19000,1647711
49,0,19000,1647711
49,0,19000,1647711
49,0,19000,1647711
50,0,19000,1647711
50,0,19000,1647711
49,0,19000,1647711
49,0,19000,1647711
49,0,19000,1647711
50,0,19000,1663333
50,0,19000,1663333
50,0,19000,1663333
50,0,19000,1663333
50,0,19000,1663333
50,0,19000,1663333
50,0,19000,1663333
50,0,19000,1663333
50,0,19000,1663333
49,0,19000,1663333
50,0,19000,1678961
50,0,19000,1678961
50,0,19000,1678961
50,0,19000,1678961
50,0,19000,1678961
50,0,19000,1678961
50,0,19000,1678961
50,0,19000,1678961
50,0,19000,1678961
50,0,19000,1678961
50,0,19000,1678961
51,0,19000,1694587
51,0,19000,1694587
50,0,19000,1694587
50,0,19000,1694587
50,0,19000,1694587
51,0,19000,1694587
51,0,19000,1694587
51,0,19000,1694587
51,0,19000,1694587
51,0,19000,1694587
53,0,19000,1710213
53,0,19000,1710213
53,0,19000,1710213
53,0,19000,1710213
54,0,19000,1710213
54,0,19000,1710213
54,0,19000,1710213
54,0,19000,1710213
53,0,19000,1710213
53,0,19000,1710213
53,0,19000,1710213
53,0,19000,1725841
53,0,19000,1725841
54,0,19000,1725841
54,0,19000,1725841
54,0,19000,1725841
53,0,19000,1725841
53,0,19000,1725841
52,0,19000,1725841
52,0,19000,1725841
53,0,19000,1725841
51,0,19000,1741466
50,0,19000,1741466
50,0,19000,1741466
50,0,19000,1741466
50,0,19000,1741466
51,0,19000,1741466
51,0,19000,1741466
51,0,19000,1741466
50,0,19000,1741466
50,0,19000,1741466
49,0,19000,1757094
50,0,19000,1757094
49,0,19000,1757094
49,0,19000,1757094
50,0,19000,1757094
50,0,19000,1757094
51,0,19000,1757094
51,0,19000,1757094
50,0,19000,1757094
50,0,19000,1757094
50,0,19000,1757094
49,0,19000,1772721
48,0,19000,1772721
48,0,19000,1772721
48,0,19000,1772721
48,0,19000,1772721
48,0,19000,1772721
48,0,19000,1772721
48,0,19000,1772721
49,0,19000,1772721
49,0,19000,1772721
50,0,19000,1788354
50,0,19000,1788354
50,0,19000,1788354
50,0,19000,1788354
50,0,19000,1788354
50,0,19000,1788354
50,0,19000,1788354
50,0,19000,1788354
50,0,19000,1788354
50,0,19000,1788354
50,0,19000,1788354
51,0,19000,1803944
52,2,19000,1803944
52,4,19000,1803944
52,4,19000,1803944
52,4,19000,1803944
52,6,19000,1803944
52,6,19000,1803944
52,6,19000,1803944
52,9,19000,1803944
52,9,19000,1803944
53,32,19000,1819613
53,40,19000,1819613
53,40,19000,1819613
53,44,19000,1819613
53,44,19000,1819613
53,48,19000,1819613
53,48,19000,1819613
53,52,19000,1819613
53,52,19000,1819613
53,52,19000,1819613
52,55,19000,1819613
52,71,19000,1835226
52,74,19000,1835226
52,76,19000,1835226
52,76,19000,1835226
53,78,19000,1835226
53,78,19000,1835226
53,80,19000,1835226
53,80,19000,1835226
53,82,19000,1835226
53,82,19000,1835226
54,88,19000,1850855
53,89,19000,1850855
53,89,19000,1850855
53,90,19000,1850855
53,90,19000,1850855
53,90,19000,1850855
53,90,19000,1850855
53,90,19000,1850855
53,90,19000,1850855
53,90,19000,1850855
53,87,19000,1866485
52,85,19000,1866485
51,84,19000,1866485
51,84,19000,1866485
51,82,19000,1866485
52,82,19000,1866485
52,82,19000,1866485
52,80,19000,1866485
52,80,19000,1866485
52,80,19000,1866485
52,79,19000,1866485
53,73,19000,1882107
53,71,19000,1882107
52,69,19000,1882107
52,69,19000,1882107
52,68,19000,1882107
52,66,19000,1882107
52,66,19000,1882107
51,65,19000,1882107
51,65,19000,1882107
51,65,19000,1882107
51,55,19000,1897738
51,53,19000,1897738
51,53,19000,1897738
52,51,19000,1897738
52,50,19000,1897738
52,50,19000,1897738
51,49,19000,1897738
51,47,19000,1897738
51,47,19000,1897738
51,45,19000,1897738
50,44,19000,1897738
50,39,19000,1913328
50,36,19000,1913328
50,36,19000,1913328
51,34,19000,1913328
51,34,19000,1913328
51,34,19000,1913328
51,33,19000,1913328
51,31,19000,1913328
51,31,19000,1913328
50,30,19000,1913328
52,23,19000,1928986
53,21,19000,1928986
53,21,19000,1928986
52,20,19000,1928986
52,20,19000,1928986
52,20,19000,1928986
52,19,19000,1928986
52,19,19000,1928986
52,18,19000,1928986
52,17,19000,1928986
53,13,19000,1944614
54,13,19000,1944614
54,12,19000,1944614
54,12,19000,1944614
55,11,19000,1944614
55,11,19000,1944614
55,11,19000,1944614
55,11,19000,1944614
55,10,19000,1944614
55,10,19000,1944614
55,10,19000,1944614
56,8,19000,1960240
56,7,19000,1960240
56,7,19000,1960240
56,7,19000,1960240
56,7,19000,1960240
56,6,19000,1960240
56,6,19000,1960240
56,6,19000,1960240
56,6,19000,1960240
55,6,19000,1960240
53,5,19000,1975868
54,4,19000,1975868
54,4,19000,1975868
55,4,19000,1975868
55,4,19000,1975868
54,4,19000,1975868
54,4,19000,1975868
55,5,19000,1975868
55,5,19000,1975868
55,5,19000,1975868
55,10,19000,1975868
53,67,19000,1991498
53,84,19000,1991498
52,102,19000,1991498
52,102,19000,1991498
53,122,19000,1991498
53,122,19000,1991498
53,122,19000,1991498
54,144,19000,1991498
54,144,19000,1991498
53,166,19000,1991498
53,305,18991,2007122
54,328,18991,2007122
54,328,18987,2007122
53,351,18987,2007122
53,351,18983,2007122
53,373,18983,2007122
53,373,18978,2007122
53,395,18978,2007122
53,395,18972,2007122
54,417,18972,2007122
54,417,18965,2007122
55,519,18923,2022749
55,537,18913,2022749
55,555,18913,2022749
55,555,18902,2022749
54,572,18902,2022749
54,572,18902,2022749
54,572,18891,2022749
54,589,18891,2022749
54,589,18879,2022749
54,604,18879,2022749
53,686,18785,2038381
53,698,18770,2038381
53,709,18770,2038381
53,709,18755,2038381
54,720,18755,2038381
54,720,18755,2038381
54,720,18739,2038381
54,730,18739,2038381
54,730,18723,2038381
54,739,18723,2038381
53,779,18604,2053968
53,793,18586,2056496
53,799,18586,2057491
53,799,18568,2058506
53,805,18568,2058506
53,805,18549,2059497
54,811,18549,2060499
54,811,18549,2061502
54,811,18531,2062508
53,816,18531,2062811
53,816,18512,2063737
54,821,18512,2064921
54,821,18512,2064921
54,821,18512,2065924
54,825,18494,2066928
54,825,18494,2066928
54,825,18475,2067930
53,829,18475,2069017
52,833,18456,2069017
52,833,18437,2069017
53,837,18437,2069017
54,866,18219,2084644
55,870,18199,2084644
55,870,18179,2084644
55,871,18159,2084644
55,873,18159,2084644
55,873,18138,2084644
56,874,18138,2084644
56,874,18118,2084644
56,875,18118,2084644
56,875,18118,2084644
55,880,18015,2100270
56,881,17995,2100270
55,882,17995,2100270
55,882,17974,2100270
55,882,17953,2100270
56,882,17953,2100270
56,882,17953,2100270
56,882,17933,2100270
56,883,17933,2100270
56,883,17933,2100270
56,883,17912,2100270
55,886,17788,2115902
56,887,17767,2115902
56,887,17767,2115902
56,887,17746,2115902
56,887,17725,2115902
56,887,17725,2115902
56,887,17705,2115902
57,887,17705,2115902
57,887,17684,2115902
57,887,17684,2115902
59,887,17580,2131529
60,887,17559,2131529
60,887,17539,2131529
60,887,17539,2131529
60,887,17539,2131529
61,888,17518,2131529
61,888,17518,2131529
62,888,17497,2131529
62,888,17497,2131529
62,888,17476,2131529
62,888,17476,2131529
64,889,17352,2147151
64,889,17352,2147151
64,889,17331,2147151
63,889,17331,2147151
63,889,17310,2147151
63,889,17310,2147151
64,889,17289,2147151
63,889,17268,2147151
63,889,17247,2147151
62,890,17247,2147151
61,891,17143,2162777
62,891,17122,2162777
62,891,17122,2162777
62,891,17101,2162777
62,891,17101,2162777
62,891,17080,2162777
62,891,17080,2162777
62,891,17059,2162777
63,891,17059,2162777
63,891,17039,2162777
61,891,16892,2178404
60,891,16892,2178404
60,891,16872,2178404
60,890,16872,2178404
60,890,16872,2178404
60,890,16851,2178404
61,890,16851,2178404
61,890,16830,2178404
62,889,16809,2178404
62,889,16809,2178404
62,889,16788,2178404
62,887,16684,2194031
62,887,16663,2194031
63,886,16663,2194031
63,886,16643,2194031
62,886,16643,2194031
62,886,16622,2194031
62,885,16622,2194031
62,885,16601,2194031
62,885,16601,2194031
62,885,16580,2194031
61,881,16477,2209657
61,881,16457,2209657
61,880,16457,2209657
61,880,16457,2209657
61,880,16436,2209657
61,879,16436,2209657
61,879,16415,2209657
62,879,16415,2209657
62,879,16395,2209657
62,878,16395,2209657
62,878,16374,2209657
63,873,16252,2225284
63,872,16232,2225284
62,871,16232,2225284
62,871,16211,2225284
62,870,16211,2225284
62,870,16211,2225284
62,870,16191,2225284
62,869,16191,2225284
62,869,16171,2225284
62,868,16171,2225284
63,864,16050,2240911
62,863,16030,2240911
63,862,16030,2240911
63,862,16030,2240911
63,862,16010,2240911
63,861,16010,2240911
63,861,16010,2240911
63,861,15990,2240911
63,861,15990,2240911
63,861,15970,2240911
62,855,15851,2256538
61,854,15831,2256538
61,854,15831,2256538
61,854,15811,2256538
60,853,15811,2256538
60,853,15791,2256538
61,852,15791,2256538
61,852,15772,2256538
61,851,15772,2256538
61,851,15752,2256538
61,850,15752,2256538
61,845,15634,2272165
61,844,15615,2272165
61,844,15615,2272165
61,843,15595,2272165
61,843,15595,2272165
61,843,15576,2272165
61,842,15576,2272165
61,842,15556,2272165
61,841,15556,2272165
61,841,15537,2272165
58,833,15422,2287801
59,828,15403,2287801
59,826,15403,2287801
59,826,15384,2287801
60,822,15384,2287801
60,822,15365,2287801
60,819,15365,2287801
60,819,15346,2287801
61,815,15346,2287801
61,815,15328,2287801
61,810,15328,2287801
61,794,15219,2303419
60,774,15219,2303419
60,774,15202,2303419
61,767,15202,2303419
61,767,15185,2303419
61,759,15185,2303419
61,759,15168,2303419
60,751,15168,2303419
60,751,15168,2303419
60,751,15151,2303419
60,705,15072,2319044
60,695,15057,2319044
60,685,15043,2319044
60,675,15043,2319044
60,675,15028,2319044
60,664,15028,2319044
60,664,15014,2319044
60,654,15014,2319044
60,654,15001,2319044
60,643,15001,2319044
60,632,14987,2319044
60,598,14926,2334671
61,575,14926,2334671
61,564,14914,2334671
61,564,14903,2334671
62,552,14903,2334671
62,552,14893,2334671
61,541,14893,2334671
61,541,14893,2334671
61,529,14882,2334671
61,529,14882,2334671
63,473,14828,2350297
63,462,14828,2350297
63,451,14820,2350297
63,451,14813,2350297
63,441,14813,2350297
63,441,14805,2350297
62,430,14805,2350297
62,430,14798,2350297
62,419,14798,2350297
62,419,14792,2350297
62,358,14759,2365924
61,348,14754,2365924
60,339,14754,2365924
60,339,14750,2365924
60,330,14746,2365924
59,321,14746,2365924
59,321,14743,2365924
59,311,14743,2365924
59,311,14740,2365924
59,302,14740,2365924
60,293,14737,2365924
60,267,14727,2381551
60,251,14725,2381551
60,251,14724,2381551
61,243,14724,2381551
61,243,14724,2381551
60,235,14723,2381551
60,235,14722,2381551
61,228,14722,2381551
61,228,14722,2381551
61,228,14721,2381551
62,185,14720,2397178
62,179,14720,2397178
62,179,14720,2397178
62,172,14720,2397178
62,172,14720,2397178
62,166,14720,2397178
62,166,14720,2397178
62,160,14720,2397178
62,154,14720,2397178
63,148,14720,2397178
63,148,14720,2397178
62,125,14720,2412804
62,120,14720,2412804
62,115,14720,2412804
62,115,14720,2412804
63,110,14720,2412804
63,110,14720,2412804
62,105,14720,2412804
63,100,14720,2412804
63,100,14720,2412804
63,95,14720,2412804
64,94,14720,2428431
64,112,14720,2428431
64,112,14720,2428431
65,128,14720,2428431
65,128,14720,2428431
65,128,14720,2428431
66,148,14720,2428431
66,148,14720,2428431
66,169,14720,2428431
66,169,14720,2428431
64,317,14710,2444058
64,341,14710,2444058
64,365,14706,2444058
64,365,14706,2444058
64,365,14701,2444058
65,391,14701,2444058
65,391,14701,2444058
65,391,14695,2444058
66,417,14695,2444058
66,417,14695,2444058
66,443,14689,2444058
67,566,14634,2459685
66,588,14622,2459685
66,610,14622,2459685
66,610,14609,2459685
66,630,14609,2459685
66,630,14596,2459685
66,649,14596,2459685
66,649,14596,2459685
66,649,14596,2459685
67,667,14583,2459685
67,748,14492,2475311
67,758,14475,2475311
67,758,14458,2475311
66,766,14458,2475311
66,766,14441,2475311
66,772,14441,2475311
66,772,14441,2475311
66,778,14424,2475311
66,778,14424,2475311
66,778,14406,2475311
66,782,14406,2475311
66,789,14300,2490938
67,788,14282,2490938
66,786,14282,2490938
66,786,14264,2490938
67,784,14264,2490938
67,784,14264,2490938
67,784,14247,2490938
68,780,14247,2490938
68,780,14247,2490938
68,780,14229,2490938
65,736,14111,2506564
66,728,14095,2506564
66,720,14095,2506564
66,720,14080,2506564
65,711,14080,2506564
65,711,14064,2506564
66,702,14064,2506564
66,702,14064,2506564
66,702,14049,2506564
66,692,14049,2506564
66,692,14034,2506564
64,640,13965,2522191
64,629,13952,2522191
63,618,13952,2522191
63,618,13939,2522191
63,607,13939,2522191
63,607,13939,2522191
63,607,13927,2522191
62,596,13927,2522191
62,596,13915,2522191
62,584,13915,2522191
61,514,13832,2537818
61,492,13823,2537818
61,481,13823,2537818
61,481,13815,2537818
61,470,13815,2537818
61,470,13806,2537818
61,459,13806,2537818
61,459,13806,2537818
61,459,13799,2537818
62,448,13799,2537818
62,405,13759,2553444
63,385,13759,2553444
63,375,13753,2553444
63,375,13748,2553444
63,366,13748,2553444
63,366,13743,2553444
63,355,13743,2553444
63,355,13738,2553444
63,346,13738,2553444
63,346,13738,2553444
63,346,13734,2553444
62,298,13720,2569074
62,290,13717,2569074
63,281,13714,2569074
63,281,13714,2569074
63,281,13712,2569074
63,273,13712,2569074
63,273,13710,2569074
64,264,13710,2569074
64,264,13710,2569074
64,264,13708,2569074
64,217,13702,2584698
64,210,13701,2584698
65,203,13701,2584698
65,203,13701,2584698
65,196,13701,2584698
65,196,13701,2584698
64,189,13701,2584698
64,189,13701,2584698
64,189,13701,2584698
65,182,13701,2584698
65,182,13701,2584698
65,146,13701,2600324
66,140,13701,2600324
66,140,13701,2600324
66,135,13701,2600324
66,135,13701,2600324
66,129,13701,2600324
66,129,13701,2600324
67,124,13701,2600324
67,124,13701,2600324
67,124,13701,2600324
67,95,13701,2615951
67,87,13701,2615951
67,86,13701,2615951
67,86,13701,2615951
67,87,13701,2615951
67,87,13701,2615951
67,90,13701,2615951
67,90,13701,2615951
67,95,13701,2615951
67,95,13701,2615951
67,137,13701,2631578
67,147,13701,2631578
67,158,13701,2631578
67,158,13701,2631578
67,168,13701,2631578
67,168,13701,2631578
69,179,13701,2631578
69,190,13701,2631578
69,190,13701,2631578
68,201,13701,2631578
68,201,13701,2631578
69,273,13695,2647204
70,290,13693,2647204
70,306,13693,2647204
70,306,13689,2647204
70,323,13689,2647204
70,323,13686,2647204
70,341,13686,2647204
70,341,13682,2647204
71,360,13682,2647204
71,360,13677,2647204
73,450,13645,2662831
72,467,13637,2662831
72,482,13637,2662831
72,482,13628,2662831
73,499,13628,2662831
73,499,13628,2662831
74,515,13619,2662831
74,515,13619,2662831
73,531,13610,2662831
73,531,13600,2662831
74,548,13600,2662831
74,625,13530,2678457
74,641,13516,2678457
74,656,13516,2678457
74,656,13502,2678457
74,672,13502,2678457
74,672,13502,2678457
75,688,13488,2678457
75,688,13488,2678457
75,688,13473,2678457
74,704,13473,2678457
74,780,13375,2694085
75,793,13357,2694085
75,806,13357,2694085
75,806,13339,2694085
75,819,13339,2694085
75,819,13339,2694085
75,819,13320,2694085
75,830,13320,2694085
75,830,13301,2694085
74,840,13301,2694085
74,840,13282,2694085
73,882,13161,2709744
74,885,13140,2709744
74,888,13140,2709744
74,888,13119,2709744
75,890,13119,2709744
75,890,13119,2709744
75,890,13098,2709744
75,890,13098,2709744
75,890,13077,2709744
75,889,13077,2709744
76,874,12953,2725338
74,864,12933,2725338
74,864,12913,2725338
75,857,12913,2725338
75,857,12913,2725338
75,857,12893,2725338
75,850,12893,2725338
75,850,12874,2725338
75,842,12874,2725338
75,842,12854,2725338
75,795,12725,2740966
75,781,12725,2740966
75,781,12725,2740966
75,781,12707,2740966
74,775,12707,2740966
74,775,12707,2740966
74,769,12690,2740966
74,769,12690,2740966
74,769,12673,2740966
74,763,12673,2740966
74,763,12673,2740966
74,740,12556,2756591
73,737,12556,2756591
73,737,12540,2756591
73,736,12540,2756591
73,736,12524,2756591
73,736,12524,2756591
73,736,12524,2756591
73,736,12508,2756591
73,737,12508,2756591
73,737,12491,2756591
71,748,12376,2772218
70,751,12376,2772218
70,751,12360,2772218
70,751,12360,2772218
70,751,12360,2772218
70,752,12343,2772218
70,752,12343,2772218
70,752,12326,2772218
70,751,12326,2772218
70,751,12310,2772218
70,750,12310,2772218
67,741,12211,2787850
66,734,12195,2787850
65,730,12195,2787850
65,730,12195,2787850
65,725,12179,2787850
65,725,12179,2787850
65,725,12163,2787850
65,720,12163,2787850
65,720,12147,2787850
66,714,12147,2787850
66,678,12043,2803471
67,663,12043,2803471
67,654,12029,2803471
67,654,12029,2803471
67,654,12015,2803471
66,646,12015,2803471
66,646,12002,2803471
66,637,12002,2803471
66,637,12002,2803471
66,637,11988,2803471
65,588,11927,2819098
64,569,11915,2819098
64,569,11904,2819098
64,561,11893,2819098
64,554,11893,2819098
64,554,11893,2819098
64,554,11883,2819098
64,550,11883,2819098
64,550,11872,2819098
63,546,11872,2819098
63,544,11862,2819098
63,539,11810,2834724
63,537,11800,2834724
63,537,11790,2834724
63,537,11780,2834724
63,538,11780,2834724
63,538,11770,2834724
64,541,11770,2834724
64,541,11759,2834724
64,544,11759,2834724
64,549,11749,2834724
64,582,11693,2850351
65,613,11693,2850351
65,613,11681,2850351
65,630,11681,2850351
65,630,11668,2850351
65,648,11668,2850351
65,648,11654,2850351
65,668,11654,2850351
65,668,11640,2850351
65,690,11640,2850351
65,690,11625,2850351
64,819,11540,2865978
64,849,11520,2865978
63,881,11520,2865978
63,881,11499,2865978
64,917,11478,2865978
64,955,11478,2865978
64,955,11455,2865978
64,997,11455,2865978
64,997,11431,2865978
64,1024,11431,2865978
62,1024,11306,2881604
62,1024,11281,2881604
63,1024,11281,2881604
63,1024,11256,2881604
62,1024,11256,2881604
62,1024,11256,2881604
62,1024,11231,2881604
63,1024,11206,2881604
64,1024,11206,2881604
64,1024,11181,2881604
64,1024,11181,2881604
64,1024,11031,2897231
64,1024,11006,2897231
64,1024,11006,2897231
64,1024,10981,2897231
65,1024,10981,2897231
65,1024,10981,2897231
65,1024,10956,2897231
65,1024,10931,2897231
65,1024,10906,2897231
65,1024,10906,2897231
65,1024,10781,2912858
65,1024,10756,2912858
65,1024,10731,2912858
66,1024,10731,2912858
66,1024,10731,2912858
65,1024,10706,2912858
65,1024,10706,2912858
65,1024,10681,2912858
65,1024,10656,2912858
65,1024,10656,2912858
65,1024,10506,2928485
64,1024,10481,2928485
64,1024,10456,2928485
64,1024,10456,2928485
64,1024,10431,2928485
65,1024,10431,2928485
65,1024,10406,2928485
65,1024,10406,2928485
65,1024,10381,2928485
65,1024,10381,2928485
65,1024,10356,2928485
64,1024,10256,2944111
63,1024,10231,2944111
63,1024,10231,2944111
63,1024,10206,2944111
63,1024,10206,2944111
63,1024,10181,2944111
62,1024,10181,2944111
62,1024,10181,2944111
62,1024,10156,2944111
62,1024,10156,2944111
64,1024,9981,2959738
64,1024,9956,2959738
64,1024,9956,2959738
64,1024,9931,2959738
64,1024,9931,2959738
64,1024,9906,2959738
64,1024,9906,2959738
64,1024,9881,2959738
64,1024,9881,2959738
64,1024,9856,2959738
64,1024,9856,2959738
65,1024,9731,2975365
64,1024,9706,2975365
63,1024,9706,2975365
63,1024,9681,2975365
64,1024,9681,2975365
64,1024,9681,2975365
64,1024,9656,2975365
64,1024,9656,2975365
64,1024,9631,2975365
65,1024,9631,2975365
65,1024,9456,2990991
65,1024,9431,2990991
66,1024,9431,2990991
66,1024,9406,2990991
66,1024,9406,2990991
66,1024,9406,2990991
66,1024,9381,2990991
66,1024,9381,2990991
66,1024,9356,2990991
65,1024,9331,2990991
65,1024,9206,3006618
66,1024,9181,3006618
66,1024,9181,3006618
66,1024,9156,3006618
67,1024,9156,3006618
67,1024,9131,3006618
67,1024,9131,3006618
67,1024,9106,3006618
66,1024,9106,3006618
66,1024,9106,3006618
66,1024,9081,3006618
68,979,8933,3022249
69,960,8910,3022249
69,941,8910,3022249
69,941,8888,3022249
70,921,8888,3022249
70,921,8888,3022249
70,921,8866,3022249
70,902,8866,3022249
70,902,8845,3022249
70,883,8845,3022249
67,789,8712,3037873
67,754,8695,3037873
67,737,8679,3037873
67,719,8679,3037873
67,719,8664,3037873
67,703,8664,3037873
67,703,8664,3037873
67,703,8648,3037873
68,686,8648,3037873
68,686,8634,3037873
68,669,8634,3037873
68,605,8568,3053497
68,590,8556,3055371
68,575,8556,3056372
68,560,8545,3057386
68,560,8534,3058374
68,545,8534,3059378
68,545,8524,3060380
69,531,8524,3061609
69,531,8524,3061609
69,516,8514,3062495
69,516,8504,3063542
69,502,8504,3064548
69,502,8495,3065550
70,488,8495,3066552
70,488,8486,3067554
70,474,8486,3068683
70,474,8478,3068683
71,461,8478,3068683
71,448,8470,3068683
71,448,8463,3068683
69,331,8409,3084307
68,321,8409,3084307
69,311,8405,3084307
69,311,8402,3084307
69,301,8402,3084307
69,301,8402,3084307
70,291,8399,3084307
70,291,8399,3084307
70,291,8396,3084307
70,282,8396,3084307
70,273,8394,3084307
72,238,8386,3099970
72,230,8386,3099970
73,222,8385,3099970
73,222,8385,3099970
73,222,8384,3099970
72,215,8384,3099970
72,215,8384,3099970
72,208,8384,3099970
72,208,8384,3099970
72,208,8384,3099970
71,226,8381,3115593
71,247,8379,3115593
72,259,8379,3115593
72,259,8378,3115593
72,272,8378,3115593
72,272,8376,3115593
72,286,8373,3115593
73,301,8373,3115593
73,301,8370,3115593
73,316,8370,3115593
73,316,8367,3115593
73,376,8348,3131188
73,390,8342,3131188
73,403,8342,3131188
73,403,8342,3131188
73,403,8336,3131188
74,416,8336,3131188
74,416,8330,3131188
73,430,8330,3131188
73,430,8323,3131188
73,445,8323,3131188
72,533,8260,3146846
72,579,8249,3146846
72,604,8249,3146846
72,604,8237,3146846
73,631,8237,3146846
73,631,8224,3146846
74,660,8224,3146846
74,693,8210,3146846
73,729,8195,3146846
73,729,8195,3146846
74,889,8103,3162467
75,930,8081,3162467
75,971,8057,3162467
76,1012,8057,3162467
76,1012,8057,3162467
76,1012,8033,3162467
76,1024,8033,3162467
76,1024,8008,3162467
76,1024,7983,3162467
77,1024,7983,3162467
77,1024,7958,3162467
77,1024,7833,3178101
76,1024,7808,3178101
76,1024,7808,3178101
76,1024,7783,3178101
76,1024,7783,3178101
76,1024,7758,3178101
76,1024,7758,3178101
76,1024,7733,3178101
77,1024,7733,3178101
77,1024,7708,3178101
78,1024,7583,3193721
78,1024,7558,3193721
78,1024,7558,3193721
78,1024,7558,3193721
78,1024,7533,3193721
78,1024,7533,3193721
78,1024,7508,3193721
78,1024,7508,3193721
78,1024,7483,3193721
78,1024,7483,3193721
78,1024,7483,3193721
79,1024,7308,3209359
80,1024,7283,3209359
80,1024,7283,3209359
80,1024,7258,3209359
81,1024,7258,3209359
81,1024,7233,3209359
81,1024,7233,3209359
81,1024,7208,3209359
81,1024,7208,3209359
81,1024,7183,3209359
81,1024,7058,3224949
81,1024,7058,3224949
81,1024,7033,3224949
81,1024,7033,3224949
81,1024,7008,3224949
80,1024,7008,3224949
80,1024,6983,3224949
80,1024,6983,3224949
80,1024,6958,3224949
80,1024,6958,3224949
79,1024,6783,3240609
80,1024,6783,3240609
80,1024,6758,3240609
79,1024,6758,3240609
79,1024,6733,3240609
80,1024,6733,3240609
80,1024,6733,3240609
80,1024,6708,3240609
79,1024,6708,3240609
79,1024,6683,3240609
80,1024,6683,3240609
80,1024,6533,3256238
81,1024,6508,3256238
81,1024,6508,3256238
81,1024,6483,3256238
82,1024,6483,3256238
82,1024,6458,3256238
82,1024,6458,3256238
82,1024,6458,3256238
82,1024,6433,3256238
82,1006,6433,3256238
82,898,6276,3271829
82,858,6256,3271829
81,839,6256,3271829
81,839,6237,3271829
81,819,6237,3271829
81,819,6237,3271829
81,819,6218,3271829
80,799,6218,3271829
80,799,6200,3271829
81,779,6200,3271829
81,779,6182,3271829
79,686,6089,3287460
78,651,6076,3287460
79,634,6063,3287460
79,618,6063,3287460
79,618,6050,3287460
79,602,6050,3287460
79,602,6038,3287460
79,585,6038,3287460
79,585,6026,3287460
78,569,6026,3287460
78,523,5984,3303082
77,494,5966,3303082
77,481,5966,3303082
77,481,5958,3303082
77,466,5958,3303082
77,466,5958,3303082
77,453,5950,3303082
77,453,5950,3303082
77,453,5942,3303082
77,439,5942,3303082
77,439,5942,3303082
76,377,5905,3318745
76,365,5900,3318745
76,354,5895,3318745
75,332,5891,3318745
75,332,5887,3318745
76,322,5887,3318745
76,322,5887,3318745
76,312,5883,3318745
76,312,5883,3318745
76,312,5880,3318745
76,272,5868,3334367
77,254,5868,3334367
77,254,5866,3334367
77,246,5866,3334367
76,237,5865,3334367
76,237,5865,3334367
76,237,5864,3334367
76,229,5864,3334367
76,229,5863,3334367
76,221,5863,3334367
75,183,5862,3349993
74,169,5862,3349993
74,169,5862,3349993
74,163,5862,3349993
73,157,5862,3349993
73,157,5862,3349993
73,150,5862,3349993
73,150,5862,3349993
73,144,5862,3349993
73,144,5862,3349993
73,144,5862,3349993
71,115,5862,3365620
72,110,5862,3365620
72,105,5862,3365620
72,105,5862,3365620
72,100,5862,3365620
72,100,5862,3365620
72,95,5862,3365620
72,91,5862,3365620
72,91,5862,3365620
72,86,5862,3365620
71,71,5862,3381247
70,64,5862,3381247
70,64,5862,3381247
70,61,5862,3381247
70,61,5862,3381247
70,58,5862,3381247
70,58,5862,3381247
70,58,5862,3381247
69,55,5862,3381247
70,52,5862,3381247
70,52,5862,3381247
70,41,5862,3396873
69,39,5862,3396873
70,37,5862,3396873
70,35,5862,3396873
70,35,5862,3396873
70,35,5862,3396873
70,33,5862,3396873
69,32,5862,3396873
69,30,5862,3396873
70,29,5862,3396873
70,44,5862,3412501
70,51,5862,3412501
70,51,5862,3412501
71,58,5862,3412501
71,58,5862,3412501
71,67,5862,3412501
71,67,5862,3412501
71,67,5862,3412501
71,76,5862,3412501
72,86,5862,3412501
72,96,5862,3412501
75,144,5862,3428133
75,152,5862,3428133
75,152,5862,3428133
75,163,5862,3428133
75,163,5862,3428133
75,163,5862,3428133
75,178,5862,3428133
75,178,5862,3428133
75,196,5862,3428133
75,196,5862,3428133
76,321,5846,3443755
76,362,5841,3443755
77,382,5841,3443755
77,382,5835,3443755
77,403,5835,3443755
77,403,5829,3443755
76,422,5829,3443755
76,422,5829,3443755
76,441,5823,3443755
76,441,5823,3443755
74,535,5771,3459380
74,553,5760,3459380
73,570,5760,3459380
73,570,5760,3459380
73,570,5749,3459380
73,587,5749,3459380
73,587,5749,3459380
72,603,5737,3459380
72,603,5737,3459380
72,603,5725,3459380
72,619,5725,3459380
72,682,5643,3475007
72,692,5628,3475007
72,701,5628,3475007
72,701,5613,3475007
72,709,5613,3475007
72,709,5613,3475007
72,709,5598,3475007
71,715,5598,3475007
71,715,5598,3475007
71,715,5582,3475007
70,734,5470,3490636
70,734,5470,3490636
70,734,5454,3490636
70,733,5454,3490636
70,733,5438,3490636
70,731,5438,3490636
70,731,5438,3490636
70,731,5422,3490636
71,728,5422,3490636
71,728,5422,3490636
71,728,5406,3490636
71,696,5313,3506263
70,682,5299,3506263
70,682,5284,3506263
70,675,5284,3506263
70,675,5284,3506263
70,675,5270,3506263
69,666,5270,3506263
69,666,5270,3506263
69,658,5256,3506263
69,658,5256,3506263
70,602,5165,3521891
70,592,5153,3521891
70,582,5153,3521891
70,582,5141,3521891
70,572,5141,3521891
70,572,5141,3521891
70,572,5130,3521891
70,561,5130,3521891
70,561,5119,3521891
71,551,5119,3521891
71,498,5061,3537519
72,477,5052,3537519
72,467,5044,3537519
72,467,5036,3537519
72,456,5036,3537519
72,456,5036,3537519
71,446,5028,3537519
71,446,5028,3537519
71,446,5021,3537519
71,435,5021,3537519
71,435,5021,3537519
72,384,4983,3553140
71,374,4978,3553140
72,364,4978,3553140
72,364,4973,3553140
71,355,4973,3553140
71,355,4973,3553140
71,345,4968,3553140
71,345,4968,3553140
71,345,4964,3553140
71,336,4964,3553140
71,291,4943,3568768
71,282,4941,3568768
70,273,4941,3568768
70,273,4939,3568768
71,265,4939,3568768
71,265,4937,3568768
70,257,4937,3568768
70,257,4937,3568768
70,257,4935,3568768
69,249,4935,3568768
69,249,4935,3568768
70,203,4930,3584396
69,196,4930,3584396
69,196,4930,3584396
70,190,4930,3584396
70,183,4930,3584396
70,183,4930,3584396
70,176,4930,3584396
70,176,4930,3584396
70,176,4930,3584396
70,170,4930,3584396
69,141,4930,3600020
69,135,4930,3600020
69,130,4930,3600020
69,130,4930,3600020
69,124,4930,3600020
69,124,4930,3600020
69,119,4930,3600020
69,119,4930,3600020
69,114,4930,3600020
69,114,4930,3600020
69,109,4930,3600020
70,86,4930,3615651
70,78,4930,3615651
70,78,4930,3615651
70,78,4930,3615651
70,74,4930,3615651
70,74,4930,3615651
70,74,4930,3615651
71,71,4930,3615651
71,67,4930,3615651
71,67,4930,3615651
74,50,4930,3631274
74,47,4930,3631274
75,45,4930,3631274
75,45,4930,3631274
75,45,4930,3631274
75,43,4930,3631274
75,43,4930,3631274
75,41,4930,3631274
75,41,4930,3631274
75,39,4930,3631274
76,28,4930,3646906
76,27,4930,3646906
76,26,4930,3646906
76,26,4930,3646906
76,24,4930,3646906
76,24,4930,3646906
76,24,4930,3646906
75,23,4930,3646906
75,23,4930,3646906
75,22,4930,3646906
75,22,4930,3646906
74,17,4930,3662528
75,15,4930,3662528
75,15,4930,3662528
76,15,4930,3662528
76,15,4930,3662528
76,15,4930,3662528
75,14,4930,3662528
75,14,4930,3662528
74,13,4930,3662528
74,13,4930,3662528
77,10,4930,3678163
78,9,4930,3678163
78,9,4930,3678163
77,8,4930,3678163
77,8,4930,3678163
77,8,4930,3678163
77,8,4930,3678163
77,8,4930,3678163
78,8,4930,3678163
78,8,4930,3678163
78,7,4930,3678163
78,6,4930,3693782
79,5,4930,3693782
78,5,4930,3693782
78,5,4930,3693782
78,5,4930,3693782
78,5,4930,3693782
78,4,4930,3693782
78,4,4930,3693782
78,4,4930,3693782
78,4,4930,3693782
79,3,4930,3709408
78,3,4930,3709408
79,3,4930,3709408
79,3,4930,3709408
79,3,4930,3709408
78,3,4930,3709408
78,3,4930,3709408
79,3,4930,3709408
79,3,4930,3709408
79,3,4930,3709408
78,3,4930,3725035
78,2,4930,3725035
78,2,4930,3725035
78,2,4930,3725035
78,2,4930,3725035
78,2,4930,3725035
78,2,4930,3725035
78,2,4930,3725035
78,2,4930,3725035
78,2,4930,3725035
78,2,4930,3725035
77,2,4930,3740663
77,2,4930,3740663
77,1,4930,3740663
77,1,4930,3740663
77,1,4930,3740663
78,1,4930,3740663
78,1,4930,3740663
78,3,4930,3740663
78,3,4930,3740663
78,3,4930,3740663
80,69,4930,3756304
79,85,4930,3756304
80,104,4930,3756304
80,104,4930,3756304
80,126,4930,3756304
80,126,4930,3756304
80,154,4930,3756304
80,154,4930,3756304
80,154,4930,3756304
80,187,4930,3756304
80,187,4930,3756304
81,402,4907,3771919
82,506,4898,3771919
82,562,4898,3771919
82,562,4898,3771919
82,622,4887,3771919
82,622,4887,3771919
82,622,4887,3771919
83,688,4874,3771919
83,688,4874,3771919
83,688,4859,3771919
85,1024,4728,3787545
85,1024,4703,3787545
85,1024,4678,3787545
84,1024,4678,3787545
84,1024,4678,3787545
84,1024,4653,3787545
84,1024,4653,3787545
84,1024,4653,3787545
85,1024,4628,3787545
85,1024,4628,3787545
85,1024,4603,3787545
87,1024,4478,3803167
89,1024,4453,3803167
89,1024,4428,3803167
90,1024,4403,3803167
90,1024,4403,3803167
90,1024,4378,3803167
90,1024,4378,3803167
90,1024,4378,3803167
90,1024,4353,3803167
90,1024,4353,3803167
91,1024,4228,3818793
90,1024,4203,3818793
90,1024,4178,3818793
91,1024,4153,3818793
91,1024,4153,3818793
91,1024,4128,3818793
91,1024,4128,3818793
91,1024,4128,3818793
91,1024,4103,3818793
91,1024,4103,3818793
91,1024,3928,3834388
90,1024,3928,3834388
90,1024,3903,3834388
90,1024,3878,3834388
89,1024,3878,3834388
88,1024,3853,3834388
88,1024,3853,3834388
89,1024,3828,3834388
89,1024,3828,3834388
89,1024,3828,3834388
88,1024,3803,3834388
85,1024,3678,3850047
85,1024,3678,3850047
85,1024,3653,3850047
85,1024,3653,3850047
85,1024,3628,3850047
84,1024,3628,3850047
84,1024,3603,3850047
83,1024,3603,3850047
83,1024,3578,3850047
83,1024,3578,3850047
82,1024,3403,3865679
80,1024,3378,3865679
80,1024,3378,3865679
80,1024,3378,3865679
80,1024,3353,3865679
80,1024,3353,3865679
80,1024,3328,3865679
80,1024,3328,3865679
80,1024,3328,3865679
79,1024,3303,3865679
79,1024,3278,3865679
77,1024,3153,3881304
76,1024,3153,3881304
76,1024,3128,3881304
76,1024,3128,3881304
76,1024,3128,3881304
76,1024,3103,3881304
76,1024,3103,3881304
76,1024,3078,3881304
75,1024,3078,3881304
75,1024,3078,3881304
70,1024,2878,3896932
68,1024,2853,3896932
68,1024,2853,3896932
68,1024,2828,3896932
67,1024,2828,3896932
67,1024,2828,3896932
67,1024,2828,3896932
67,1024,2803,3896932
67,1024,2803,3896932
67,1024,2778,3896932
63,1024,2628,3912560
64,1024,2628,3912560
64,1024,2603,3912560
64,1024,2603,3912560
64,1024,2578,3912560
63,1024,2578,3912560
63,1024,2578,3912560
63,1024,2553,3912560
62,1024,2553,3912560
62,1024,2528,3912560
62,1024,2503,3912560
61,1024,2353,3928181
60,1024,2353,3928181
60,1024,2328,3928181
59,1024,2328,3928181
59,1024,2328,3928181
59,1024,2303,3928181
59,1024,2303,3928181
59,1024,2278,3928181
58,1024,2278,3928181
57,1024,2253,3928181
55,1024,2103,3943810
55,1024,2078,3943810
55,1024,2078,3943810
55,1024,2078,3943810
55,1024,2078,3943810
55,1024,2053,3943810
55,1024,2053,3943810
55,1024,2028,3943810
55,1024,2028,3943810
55,1024,2003,3943810
55,1024,2003,3943810
55,965,1857,3959434
54,943,1834,3959434
54,920,1834,3959434
54,920,1813,3959434
55,899,1813,3959434
55,899,1791,3959434
55,877,1791,3959434
55,877,1791,3959434
54,857,1771,3959434
54,857,1771,3959434
55,740,1644,3975063
56,723,1629,3975063
55,705,1629,3975063
55,705,1613,3975063
55,689,1613,3975063
55,689,1599,3975063
55,672,1599,3975063
55,672,1599,3975063
55,672,1584,3975063
54,656,1584,3975063
54,656,1571,3975063
52,580,1498,3990690
52,553,1498,3990690
52,553,1487,3990690
53,540,1487,3990690
53,540,1487,3990690
53,540,1477,3990690
52,527,1477,3990690
52,527,1477,3990690
52,527,1467,3990690
53,514,1467,3990690
53,445,1408,4006319
52,424,1401,4006319
52,424,1395,4006319
52,414,1395,4006319
52,414,1388,4006319
53,405,1388,4006319
53,405,1388,4006319
53,405,1382,4006319
53,395,1382,4006319
53,395,1376,4006319
52,352,1347,4021967
51,336,1347,4021967
51,336,1343,4021967
52,328,1343,4021967
52,328,1339,4021967
51,321,1339,4021967
51,321,1339,4021967
50,314,1335,4021967
50,314,1335,4021967
50,314,1332,4021967
50,306,1332,4021967
50,275,1316,4037567
51,269,1314,4037567
50,263,1312,4037567
51,258,1312,4037567
51,258,1310,4037567
51,253,1310,4037567
51,253,1310,4037567
51,253,1309,4037567
51,247,1309,4037567
51,247,1309,4037567
51,223,1303,4053193
51,219,1302,4054368
51,215,1302,4055382
52,211,1302,4056375
52,211,1301,4057378
51,206,1301,4058386
51,206,1301,4059381
51,206,1301,4059381
51,203,1301,4060384
51,203,1301,4061153
51,203,1301,4062158
51,199,1301,4062158
51,199,1301,4063161
50,195,1301,4064168
50,195,1301,4065166
50,191,1301,4066169
50,191,1301,4066169
50,191,1301,4067174
50,187,1301,4068181
50,187,1301,4069177
50,184,1301,4070292
50,184,1301,4070292
49,147,1301,4085954
49,145,1301,4085954
49,145,1301,4085954
50,142,1301,4085954
49,139,1301,4085954
49,137,1301,4085954
49,135,1301,4085954
49,135,1301,4085954
49,135,1301,4085954
50,133,1301,4085954
50,123,1301,4101578
50,118,1301,4101578
50,118,1301,4101578
49,116,1301,4101578
49,116,1301,4101578
50,114,1301,4101578
50,114,1301,4101578
49,112,1301,4101578
49,112,1301,4101578
49,110,1301,4101578
49,110,1301,4101578
48,99,1301,4117209
48,95,1301,4117209
48,93,1301,4117209
48,93,1301,4117209
48,91,1301,4117209
49,89,1301,4117209
49,89,1301,4117209
49,87,1301,4117209
49,87,1301,4117209
49,87,1301,4117209
49,78,1301,4132832
49,76,1301,4132832
49,74,1301,4132832
49,74,1301,4132832
50,72,1301,4132832
50,72,1301,4132832
50,72,1301,4132832
50,71,1301,4132832
50,69,1301,4132832
51,67,1301,4132832
51,67,1301,4132832
52,61,1301,4148424
51,58,1301,4148424
51,58,1301,4148424
51,56,1301,4148424
51,56,1301,4148424
51,55,1301,4148424
51,55,1301,4148424
52,53,1301,4148424
52,52,1301,4148424
52,51,1301,4148424
51,46,1301,4164083
50,44,1301,4164083
50,44,1301,4164083
50,43,1301,4164083
50,43,1301,4164083
50,43,1301,4164083
50,42,1301,4164083
50,42,1301,4164083
50,41,1301,4164083
50,41,1301,4164083
51,40,1301,4164083
52,34,1301,4179714
52,34,1301,4179714
52,33,1301,4179714
52,33,1301,4179714
52,33,1301,4179714
52,32,1301,4179714
52,32,1301,4179714
52,31,1301,4179714
52,31,1301,4179714
52,31,1301,4179714
53,25,1301,4195336
53,25,1301,4195336
53,24,1301,4195336
53,24,1301,4195336
53,24,1301,4195336
52,23,1301,4195336
52,23,1301,4195336
52,22,1301,4195336
52,22,1301,4195336
52,22,1301,4195336
53,19,1301,4210964
53,18,1301,4210964
53,17,1301,4210964
53,17,1301,4210964
53,17,1301,4210964
54,17,1301,4210964
54,17,1301,4210964
53,17,1301,4210964
53,17,1301,4210964
52,16,1301,4210964
52,16,1301,4210964
51,13,1301,4226558
51,12,1301,4226558
51,12,1301,4226558
50,11,1301,4226558
50,11,1301,4226558
51,11,1301,4226558
51,11,1301,4226558
51,11,1301,4226558
51,11,1301,4226558
51,11,1301,4226558
50,9,1301,4242219
51,8,1301,4242219
51,8,1301,4242219
51,8,1301,4242219
51,8,1301,4242219
51,7,1301,4242219
51,7,1301,4242219
51,7,1301,4242219
52,7,1301,4242219
52,7,1301,4242219
51,6,1301,4242219
52,5,1301,4257844
51,5,1301,4257844
50,5,1301,4257844
50,5,1301,4257844
50,5,1301,4257844
51,4,1301,4257844
51,4,1301,4257844
51,4,1301,4257844
51,4,1301,4257844
50,4,1301,4257844
52,3,1301,4273479
51,3,1301,4273479
51,2,1301,4273479
51,2,1301,4273479
51,2,1301,4273479
51,2,1301,4273479
51,2,1301,4273479
51,2,1301,4273479
51,2,1301,4273479
51,2,1301,4273479
52,1,1301,4289103
52,1,1301,4289103
52,1,1301,4289103
52,1,1301,4289103
52,1,1301,4289103
52,1,1301,4289103
52,1,1301,4289103
52,1,1301,4289103
52,1,1301,4289103
52,1,1301,4289103
52,1,1301,4289103
51,1,1301,4304724
51,0,1301,4304724
51,0,1301,4304724
51,0,1301,4304724
51,0,1301,4304724
52,0,1301,4304724
52,0,1301,4304724
51,0,1301,4304724
51,0,1301,4304724
51,0,1301,4304724
51,0,1301,4320350
51,0,1301,4320350
51,0,1301,4320350
51,0,1301,4320350
51,0,1301,4320350
51,0,1301,4320350
51,0,1301,4320350
51,0,1301,4320350
51,0,1301,4320350
51,0,1301,4320350
51,0,1301,4320350
50,0,1301,4335976
50,0,1301,4335976
50,0,1301,4335976
49,0,1301,4335976
49,0,1301,4335976
49,0,1301,4335976
49,0,1301,4335976
49,0,1301,4335976
49,0,1301,4335976
49,0,1301,4335976
49,0,1301,4351606
49,0,1301,4351606
50,0,1301,4351606
50,0,1301,4351606
50,0,1301,4351606
50,0,1301,4351606
50,0,1301,4351606
50,0,1301,4351606
50,0,1301,4351606
50,0,1301,4351606
50,0,1301,4351606
50,0,1301,4367235
50,0,1301,4367235
50,0,1301,4367235
50,0,1301,4367235
51,0,1301,4367235
51,0,1301,4367235
53,0,1301,4367235
53,0,1301,4367235
52,0,1301,4367235
52,0,1301,4367235
52,0,1301,4382857
51,0,1301,4382857
51,0,1301,4382857
52,0,1301,4382857
52,0,1301,4382857
51,0,1301,4382857
51,0,1301,4382857
51,0,1301,4382857
51,0,1301,4382857
51,0,1301,4382857
53,0,1301,4398488
54,0,1301,4398488
54,0,1301,4398488
55,0,1301,4398488
55,0,1301,4398488
56,0,1301,4398488
56,0,1301,4398488
58,0,1301,4398488
59,0,1301,4398488
59,0,1301,4398488
61,0,1301,4398488
76,0,1301,4414109
83,0,1301,4414109
92,0,1301,4414109
92,0,1301,4414109
92,0,1301,4414109
106,0,1301,4414109
125,0,1301,4414109
125,0,1301,4414109
125,0,1301,4414109
148,0,1301,4414109
357,0,1313,4429736
396,0,1313,4429736
396,0,1319,4429736
442,0,1319,4429736
442,0,1319,4429736
492,0,1326,4429736
492,0,1326,4429736
492,0,1335,4429736
545,0,1335,4429736
545,0,1345,4429736
601,0,1358,4429736
881,0,1444,4445363
937,0,1466,4445363
992,0,1490,4445363
1024,0,1490,4445363
1024,0,1490,4445363
1024,0,1515,4445363
1024,0,1515,4445363
1024,0,1540,4445363
1024,0,1540,4445363
1024,0,1565,4445363
1024,0,1690,4460990
1024,0,1715,4460990
1024,0,1740,4460990
1024,0,1740,4460990
1024,0,1740,4460990
1024,0,1765,4460990
1024,0,1765,4460990
1024,0,1765,4460990
1024,0,1790,4460990
1024,0,1790,4460990
1024,0,1990,4476624
1024,0,1990,4476624
1024,0,2015,4476624
1024,0,2015,4476624
1024,0,2040,4476624
1024,0,2040,4476624
1024,0,2040,4476624
1024,0,2065,4476624
1024,0,2065,4476624
1024,0,2090,4476624
1024,0,2090,4476624
1024,0,2240,4492244
1024,0,2265,4492244
1024,0,2265,4492244
1024,0,2290,4492244
1024,0,2290,4492244
1024,0,2290,4492244
1024,0,2315,4492244
1024,0,2315,4492244
1024,0,2315,4492244
1024,0,2340,4492244
1024,0,2490,4507872
1024,0,2515,4507872
1024,0,2515,4507872
1024,0,2540,4507872
1024,0,2540,4507872
1024,0,2565,4507872
1024,0,2565,4507872
1024,0,2565,4507872
1024,0,2590,4507872
1024,0,2590,4507872
1024,0,2590,4507872
1024,0,2765,4523504
1024,0,2765,4523504
1024,0,2790,4523504
1024,0,2790,4523504
1024,0,2815,4523504
1024,0,2815,4523504
1024,0,2815,4523504
1024,0,2840,4523504
1024,0,2840,4523504
1024,0,2865,4523504
1024,0,3040,4539130
1024,0,3065,4539130
1024,0,3090,4539130
1005,0,3090,4539130
1005,0,3114,4539130
984,0,3114,4539130
984,0,3114,4539130
984,0,3138,4539130
963,0,3138,4539130
963,0,3161,4539130
941,0,3161,4539130
858,0,3247,4554750
838,0,3286,4554750
819,0,3286,4554750
819,0,3305,4554750
799,0,3305,4554750
799,0,3323,4554750
779,0,3323,4554750
779,0,3340,4554750
761,0,3340,4554750
761,0,3357,4554750
670,0,3434,4570376
653,0,3434,4570376
637,0,3447,4570376
621,0,3461,4570376
621,0,3473,4570376
606,0,3473,4570376
606,0,3486,4570376
590,0,3486,4570376
590,0,3497,4570376
574,0,3497,4570376
501,0,3558,4586002
488,0,3567,4586002
475,0,3567,4586002
475,0,3575,4586002
461,0,3583,4586002
448,0,3583,4586002
448,0,3591,4586002
437,0,3591,4586002
437,0,3591,4586002
425,0,3598,4586002
425,0,3598,4586002
379,0,3628,4601629
369,0,3633,4601629
359,0,3633,4601629
359,0,3638,4601629
348,0,3638,4601629
348,0,3642,4601629
338,0,3646,4601629
327,0,3646,4601629
327,0,3646,4601629
318,0,3650,4601629
274,0,3667,4617262
267,0,3669,4617262
259,0,3669,4617262
259,0,3671,4617262
251,0,3671,4617262
243,0,3672,4617262
243,0,3672,4617262
243,0,3674,4617262
236,0,3674,4617262
236,0,3675,4617262
229,0,3675,4617262
202,0,3677,4632883
196,0,3677,4632883
191,0,3677,4632883
191,0,3677,4632883
185,0,3677,4632883
185,0,3677,4632883
178,0,3677,4632883
178,0,3677,4632883
173,0,3677,4632883
167,0,3677,4632883
141,0,3677,4648514
136,0,3677,4648514
132,0,3677,4648514
132,0,3677,4648514
127,0,3677,4648514
127,0,3677,4648514
124,0,3677,4648514
124,0,3677,4648514
121,0,3677,4648514
121,0,3677,4648514
117,0,3677,4648514
102,0,3677,4664139
100,0,3677,4664139
100,0,3677,4664139
98,0,3677,4664139
98,0,3677,4664139
98,0,3677,4664139
96,0,3677,4664139
96,0,3677,4664139
94,0,3677,4664139
94,0,3677,4664139
80,0,3677,4679764
79,0,3677,4679764
78,0,3677,4679764
78,0,3677,4679764
78,0,3677,4679764
77,0,3677,4679764
77,0,3677,4679764
76,0,3677,4679764
76,0,3677,4679764
76,0,3677,4679764
66,0,3677,4695390
66,0,3677,4695390
66,0,3677,4695390
65,0,3677,4695390
65,0,3677,4695390
65,0,3677,4695390
63,0,3677,4695390
63,0,3677,4695390
63,0,3677,4695390
63,0,3677,4695390
63,0,3677,4695390
59,0,3677,4711016
59,0,3677,4711016
57,0,3677,4711016
57,0,3677,4711016
57,0,3677,4711016
56,0,3677,4711016
56,0,3677,4711016
56,0,3677,4711016
56,0,3677,4711016
56,0,3677,4711016
66,0,3677,4726645
75,0,3677,4726645
87,0,3677,4726645
87,0,3677,4726645
104,0,3677,4726645
104,0,3677,4726645
104,0,3677,4726645
127,0,3677,4726645
127,0,3677,4726645
153,0,3677,4726645
153,0,3677,4726645
309,0,3684,4742273
384,0,3688,4742273
384,0,3688,4742273
384,0,3693,4742273
430,0,3693,4742273
430,0,3693,4742273
430,0,3700,4742273
481,0,3700,4742273
481,0,3700,4742273
481,0,3709,4742273
902,0,3819,4757904
962,0,3819,4757904
1019,0,3842,4757904
1019,0,3842,4757904
1019,0,3867,4757904
1024,0,3867,4757904
1024,0,3892,4757904
1024,0,3892,4757904
1024,0,3892,4757904
1024,0,3917,4757904
1024,0,4092,4773494
1024,0,4117,4773494
1024,0,4117,4773494
1024,0,4142,4773494
1024,0,4142,4773494
1024,0,4142,4773494
1024,0,4167,4773494
1024,0,4167,4773494
1024,0,4192,4773494
1024,0,4192,4773494
1024,0,4217,4773494
1024,0,4367,4789118
1024,0,4367,4789118
1024,0,4392,4789118
1024,0,4392,4789118
1024,0,4417,4789118
1024,0,4417,4789118
1024,0,4417,4789118
1024,0,4442,4789118
1024,0,4442,4789118
1024,0,4467,4789118
1024,0,4617,4804777
1024,0,4642,4804777
1024,0,4667,4804777
1024,0,4692,4804777
1024,0,4692,4804777
1024,0,4692,4804777
1024,0,4717,4804777
1024,0,4717,4804777
1024,0,4742,4804777
1024,0,4742,4804777
1024,0,4742,4804777
1024,0,4867,4820371
1024,0,4892,4820371
1024,0,4917,4820371
1024,0,4917,4820371
1024,0,4942,4820371
1024,0,4942,4820371
1024,0,4967,4820371
1024,0,4967,4820371
1024,0,4967,4820371
1024,0,4992,4820371
1024,0,5142,4836030
1024,0,5167,4836030
1024,0,5167,4836030
1024,0,5192,4836030
1024,0,5217,4836030
1024,0,5217,4836030
1024,0,5217,4836030
1024,0,5242,4836030
1024,0,5242,4836030
1024,0,5267,4836030
1024,0,5267,4836030
1024,0,5392,4851656
1024,0,5417,4851656
1024,0,5417,4851656
1024,0,5442,4851656
1024,0,5467,4851656
1024,0,5467,4851656
1024,0,5492,4851656
1024,0,5492,4851656
1024,0,5492,4851656
1024,0,5517,4851656
1024,0,5667,4867283
1024,0,5667,4867283
1024,0,5692,4867283
1022,0,5692,4867283
1017,0,5717,4867283
1017,0,5742,4867283
1013,0,5742,4867283
1013,0,5766,4867283
1008,0,5766,4867283
1008,0,5766,4867283
986,0,5911,4882910
983,0,5935,4882910
981,0,5935,4882910
981,0,5958,4882910
980,0,5958,4882910
980,0,5982,4882910
981,0,5982,4882910
981,0,5982,4882910
981,0,6005,4882910
982,0,6005,4882910
982,0,6005,4882910
996,0,6172,4898504
999,0,6197,4898504
1002,0,6197,4898504
1002,0,6221,4898504
1005,0,6221,4898504
1005,0,6221,4898504
1005,0,6245,4898504
1009,0,6245,4898504
1009,0,6270,4898504
1013,0,6270,4898504
1024,0,6419,4914163
1024,0,6444,4914163
1024,0,6444,4914163
1024,0,6469,4914163
1024,0,6469,4914163
1024,0,6494,4914163
1024,0,6494,4914163
1024,0,6519,4914163
1024,0,6519,4914163
1024,0,6519,4914163
1024,0,6544,4914163
1024,0,6694,4929791
1024,0,6719,4929791
1024,0,6719,4929791
1024,0,6719,4929791
1024,0,6744,4929791
1024,0,6744,4929791
1024,0,6769,4929791
1024,0,6769,4929791
1024,0,6794,4929791
1024,0,6794,4929791
1024,0,6944,4945418
1024,0,6969,4945418
1024,0,6969,4945418
1024,0,6994,4945418
1024,0,6994,4945418
1024,0,6994,4945418
1024,0,7019,4945418
1024,0,7019,4945418
1024,0,7019,4945418
1024,0,7044,4945418
1024,0,7219,4961012
1024,0,7244,4961012
1024,0,7244,4961012
1024,0,7244,4961012
1024,0,7269,4961012
1024,0,7269,4961012
1024,0,7269,4961012
1024,0,7294,4961012
1024,0,7294,4961012
1024,0,7319,4961012
1024,0,7319,4961012
1024,0,7469,4976671
1024,0,7494,4976671
1024,0,7494,4976671
1024,0,7519,4976671
1024,0,7519,4976671
1024,0,7544,4976671
1024,0,7544,4976671
1024,0,7569,4976671
1024,0,7569,4976671
1024,0,7594,4976671
1024,0,7744,4992300
1024,0,7769,4992300
1024,0,7769,4992300
1024,0,7794,4992300
1024,0,7794,4992300
1024,0,7794,4992300
1024,0,7819,4992300
1024,0,7819,4992300
1024,0,7844,4992300
1024,0,7844,4992300
1024,0,7844,4992300
1024,0,8019,5007926
1024,0,8019,5007926
1024,0,8044,5007926
1024,0,8044,5007926
1024,0,8069,5007926
1024,0,8069,5007926
1024,0,8069,5007926
1024,0,8094,5007926
1024,0,8094,5007926
1024,0,8119,5007926
1024,0,8294,5023582
1024,0,8294,5023582
1024,0,8294,5023582
1024,0,8319,5023582
1024,0,8319,5023582
1024,0,8344,5023582
1024,0,8344,5023582
1024,0,8344,5023582
1024,0,8369,5023582
1024,0,8369,5023582
1024,0,8369,5023582
1024,0,8544,5039185
1024,0,8569,5039185
1024,0,8594,5039185
1024,0,8594,5039185
1024,0,8619,5039185
1024,0,8619,5039185
1024,0,8644,5039185
1024,0,8644,5039185
1024,0,8644,5039185
1024,0,8669,5039185
1024,0,8794,5054803
1024,0,8819,5055991
1024,0,8844,5057968
1024,0,8844,5058974
1024,0,8869,5059973
1024,0,8869,5059973
1024,0,8869,5061442
1024,0,8894,5062203
1024,0,8894,5062535
1024,0,8919,5063511
1024,0,8919,5064516
1024,0,8944,5064516
1024,0,8944,5065974
1024,0,8944,5067079
1024,0,8969,5067079
1024,0,8969,5067993
1024,0,8969,5069040
1024,0,8994,5069040
1024,0,8994,5069040
1024,0,9019,5069040
1024,0,9294,5084667
1024,0,9319,5084667
1024,0,9319,5084667
1024,0,9344,5084667
1024,0,9344,5084667
1024,0,9369,5084667
1024,0,9369,5084667
1024,0,9369,5084667
1024,0,9394,5084667
1024,0,9394,5084667
1024,0,9569,5100325
1024,0,9569,5100325
1024,0,9594,5100325
1024,0,9594,5100325
1024,0,9619,5100325
1024,0,9619,5100325
1024,0,9644,5100325
1024,0,9644,5100325
1024,0,9644,5100325
1024,0,9669,5100325
1024,0,9669,5100325
1024,0,9844,5115920
1024,0,9844,5115920
1024,0,9869,5115920
1024,0,9869,5115920
1024,0,9894,5115920
1024,0,9894,5115920
1024,0,9919,5115920
1024,0,9919,5115920
1024,0,9944,5115920
1024,0,9944,5115920
1024,0,10094,5131548
1024,0,10119,5131548
1024,0,10119,5131548
1024,0,10144,5131548
1024,0,10144,5131548
1024,0,10169,5131548
1024,0,10169,5131548
1024,0,10169,5131548
1024,0,10194,5131548
1024,0,10219,5131548
1024,0,10219,5131548
1024,0,10369,5147174
1024,0,10369,5147174
1024,0,10394,5147174
1024,0,10394,5147174
1024,0,10419,5147174
1024,0,10419,5147174
1024,0,10444,5147174
1024,0,10444,5147174
1024,0,10469,5147174
1024,0,10469,5147174
1024,0,10619,5162834
1024,0,10644,5162834
1024,0,10644,5162834
1024,0,10644,5162834
1024,0,10669,5162834
1024,0,10669,5162834
1024,0,10694,5162834
1024,0,10694,5162834
1024,0,10694,5162834
1024,0,10719,5162834
1024,0,10894,5178427
1024,0,10894,5178427
1024,0,10919,5178427
1024,0,10919,5178427
1024,0,10944,5178427
1024,0,10944,5178427
1024,0,10969,5178427
1024,0,10969,5178427
1024,0,10969,5178427
1024,0,10969,5178427
1024,0,10994,5178427
1024,0,11144,5194053
1024,0,11144,5194053
1024,0,11169,5194053
1024,0,11169,5194053
1024,0,11194,5194053
1024,0,11194,5194053
1024,0,11219,5194053
1024,0,11219,5194053
1024,0,11219,5194053
1024,0,11244,5194053
1024,0,11419,5209680
1024,0,11419,5209680
1024,0,11444,5209680
1024,0,11444,5209680
1024,0,11469,5209680
1024,0,11469,5209680
1024,0,11469,5209680
1024,0,11469,5209680
1024,0,11494,5209680
1024,0,11494,5209680
1024,0,11519,5209680
1024,0,11669,5225307
1024,0,11669,5225307
1024,0,11694,5225307
1024,0,11694,5225307
1024,0,11719,5225307
1024,0,11719,5225307
1024,0,11719,5225307
1024,0,11744,5225307
1024,0,11744,5225307
1024,0,11769,5225307
1024,0,11944,5240934
1024,0,11944,5240934
1024,0,11969,5240934
1024,0,11969,5240934
1024,0,11969,5240934
1024,0,11969,5240934
1024,0,11994,5240934
1024,0,11994,5240934
1024,0,12019,5240934
1024,0,12019,5240934
1024,0,12194,5256560
1024,0,12219,5256560
1024,0,12244,5256560
1024,0,12244,5256560
1024,0,12244,5256560
1024,0,12269,5256560
1024,0,12269,5256560
1024,0,12294,5256560
1024,0,12294,5256560
1024,0,12294,5256560
1024,0,12319,5256560
1024,0,12469,5272187
1024,0,12469,5272187
1024,0,12494,5272187
1024,0,12494,5272187
1024,0,12519,5272187
1024,0,12519,5272187
1024,0,12544,5272187
1024,0,12544,5272187
1024,0,12544,5272187
1024,0,12569,5272187
1024,0,12719,5287813
1024,0,12744,5287813
1024,0,12744,5287813
1024,0,12769,5287813
1024,0,12769,5287813
1024,0,12769,5287813
1024,0,12794,5287813
1024,0,12794,5287813
1024,0,12819,5287813
1024,0,12819,5287813
1024,0,12844,5287813
1024,0,12969,5303440
1024,0,12994,5303440
1024,0,12994,5303440
1024,0,13019,5303440
1024,0,13019,5303440
1024,0,13044,5303440
1024,0,13044,5303440
1024,0,13044,5303440
1024,0,13069,5303440
1024,0,13069,5303440
1024,0,13244,5319067
1024,0,13269,5319067
1024,0,13294,5319067
1024,0,13294,5319067
1024,0,13319,5319067
1024,0,13319,5319067
1024,0,13344,5319067
1024,0,13344,5319067
1024,0,13344,5319067
1024,0,13369,5319067
1024,0,13369,5319067
1024,0,13519,5334694
1024,0,13544,5334694
1024,0,13544,5334694
1024,0,13569,5334694
1024,0,13569,5334694
1024,0,13594,5334694
1024,0,13594,5334694
1024,0,13619,5334694
1024,0,13619,5334694
1024,0,13619,5334694
1024,0,13769,5350320
1024,0,13794,5350320
1024,0,13794,5350320
1024,0,13794,5350320
1024,0,13819,5350320
1024,0,13819,5350320
1024,0,13844,5350320
1024,0,13844,5350320
1024,0,13844,5350320
1024,0,13869,5350320
1024,0,13944,5361728
1024,0,13969,5363192
1024,0,13969,5363926
1024,0,13969,5364567
1024,0,13994,5365576
1024,0,13994,5366574
1024,0,13994,5366574
1024,0,14019,5368183
1024,0,14019,5368857
1024,0,14044,5369182
1024,0,14044,5370187
1024,0,14044,5371189
1024,0,14069,5371264
1024,0,14069,5371264
940,0,14381,5386928
932,0,14403,5386928
924,0,14403,5386928
924,0,14425,5386928
916,0,14425,5386928
916,0,14425,5386928
916,0,14446,5386928
908,0,14446,5386928
908,0,14446,5386928
908,0,14468,5386928
901,0,14468,5386928
865,0,14611,5402549
851,0,14611,5402549
851,0,14631,5402549
846,0,14631,5402549
846,0,14631,5402549
846,0,14651,5402549
839,0,14651,5402549
839,0,14651,5402549
833,0,14670,5402549
833,0,14670,5402549
799,0,14800,5418176
793,0,14818,5418176
789,0,14818,5418176
784,0,14836,5418176
784,0,14836,5418176
784,0,14853,5418176
778,0,14853,5418176
778,0,14871,5418176
774,0,14871,5418176
774,0,14871,5418176
774,0,14888,5418176
751,0,14973,5433803
747,0,14990,5433803
744,0,14990,5433803
744,0,15006,5433803
740,0,15006,5433803
740,0,15022,5433803
736,0,15039,5433803
732,0,15039,5433803
732,0,15055,5433803
728,0,15055,5433803
709,0,15149,5449431
706,0,15164,5449431
703,0,15164,5449431
703,0,15179,5449431
700,0,15179,5449431
700,0,15179,5449431
700,0,15195,5449431
698,0,15195,5449431
698,0,15210,5449431
695,0,15210,5449431
682,0,15313,5465057
677,0,15313,5465057
677,0,15327,5465057
674,0,15327,5465057
674,0,15341,5465057
672,0,15341,5465057
672,0,15341,5465057
672,0,15356,5465057
669,0,15356,5465057
669,0,15370,5465057
667,0,15370,5465057
659,0,15454,5480684
658,0,15468,5480684
656,0,15468,5480684
656,0,15481,5480684
654,0,15481,5480684
654,0,15481,5480684
652,0,15495,5480684
652,0,15495,5480684
652,0,15509,5480684
650,0,15509,5480684
641,0,15603,5496310
639,0,15616,5496310
638,0,15616,5496310
638,0,15629,5496310
636,0,15629,5496310
636,0,15643,5496310
634,0,15643,5496310
634,0,15643,5496310
634,0,15656,5496310
633,0,15656,5496310
633,0,15656,5496310
626,0,15733,5511937
626,0,15746,5511937
624,0,15746,5511937
624,0,15759,5511937
624,0,15759,5511937
624,0,15759,5511937
624,0,15772,5511937
623,0,15772,5511937
623,0,15772,5511937
623,0,15785,5511937
618,0,15873,5527566
616,0,15886,5527566
615,0,15886,5527566
615,0,15898,5527566
615,0,15898,5527566
615,0,15911,5527566
615,0,15911,5527566
615,0,15911,5527566
615,0,15923,5527566
615,0,15923,5527566
615,0,15923,5527566
611,0,15998,5543160
610,0,15998,5543160
610,0,16010,5543160
610,0,16010,5543160
610,0,16023,5543160
610,0,16023,5543160
610,0,16023,5543160
610,0,16035,5543160
609,0,16035,5543160
609,0,16048,5543160
608,0,16134,5558829
608,0,16146,5558829
607,0,16146,5558829
607,0,16158,5558829
607,0,16158,5558829
607,0,16171,5558829
606,0,16171,5558829
606,0,16171,5558829
606,0,16183,5558829
607,0,16183,5558829
609,0,16269,5574449
613,0,16269,5574449
613,0,16282,5574449
615,0,16282,5574449
615,0,16282,5574449
615,0,16294,5574449
616,0,16294,5574449
616,0,16294,5574449
616,0,16307,5574449
619,0,16307,5574449
619,0,16319,5574449
637,0,16398,5590039
645,0,16411,5590039
650,0,16411,5590039
650,0,16425,5590039
654,0,16425,5590039
654,0,16438,5590039
658,0,16438,5590039
658,0,16438,5590039
658,0,16452,5590039
662,0,16452,5590039
679,0,16538,5605696
683,0,16552,5605696
692,0,16567,5605696
692,0,16582,5605696
697,0,16582,5605696
697,0,16597,5605696
702,0,16597,5605696
702,0,16612,5605696
707,0,16612,5605696
707,0,16627,5605696
711,0,16627,5605696
722,0,16706,5621291
726,0,16722,5621291
728,0,16722,5621291
728,0,16738,5621291
730,0,16738,5621291
730,0,16738,5621291
730,0,16754,5621291
730,0,16754,5621291
730,0,16754,5621291
730,0,16770,5621291
735,0,16866,5636956
737,0,16882,5636956
739,0,16898,5636956
740,0,16898,5636956
741,0,16915,5636956
741,0,16915,5636956
741,0,16931,5636956
742,0,16931,5636956
742,0,16948,5636956
744,0,16948,5636956
743,0,17046,5652577
742,0,17063,5652577
745,0,17063,5652577
745,0,17079,5652577
751,0,17096,5652577
758,0,17096,5652577
758,0,17096,5652577
769,0,17113,5652577
769,0,17113,5652577
769,0,17113,5652577
769,0,17130,5652577
880,0,17226,5668209
931,0,17247,5668209
931,0,17269,5668209
957,0,17269,5668209
957,0,17292,5668209
984,0,17316,5668209
1013,0,17316,5668209
1013,0,17316,5668209
1024,0,17340,5668209
1024,0,17340,5668209
1024,0,17490,5683831
1024,0,17515,5683831
1024,0,17515,5683831
1024,0,17540,5683831
1024,0,17540,5683831
1024,0,17540,5683831
1024,0,17565,5683831
1024,0,17565,5683831
1024,0,17590,5683831
1024,0,17590,5683831
1024,0,17615,5683831
1024,0,17740,5699458
1024,0,17765,5699458
1024,0,17765,5699458
1024,0,17765,5699458
1024,0,17790,5699458
1024,0,17790,5699458
1024,0,17815,5699458
1024,0,17815,5699458
1024,0,17840,5699458
1024,0,17865,5699458
1024,0,17990,5715083
1024,0,18015,5715083
1024,0,18040,5715083
1024,0,18040,5715083
1024,0,18065,5715083
1024,0,18065,5715083
1024,0,18065,5715083
1024,0,18090,5715083
1024,0,18090,5715083
1024,0,18115,5715083
1024,0,18140,5715083
1024,0,18265,5730710
1024,0,18290,5730710
1024,0,18290,5730710
1024,0,18315,5730710
1024,0,18315,5730710
1024,0,18315,5730710
1024,0,18315,5730710
1024,0,18340,5730710
1024,0,18340,5730710
1024,0,18365,5730710
1024,0,18540,5746341
1024,0,18565,5746341
1024,0,18565,5746341
1024,0,18590,5746341
1024,0,18590,5746341
1024,0,18615,5746341
1024,0,18615,5746341
1024,0,18615,5746341
1024,0,18640,5746341
1024,0,18640,5746341
1024,0,18790,5761964
1012,0,18815,5761964
993,0,18815,5761964
993,0,18815,5761964
973,0,18839,5761964
973,0,18862,5761964
952,0,18885,5761964
932,0,18885,5761964
932,0,18907,5761964
912,0,18907,5761964
912,0,18929,5761964
816,0,19000,5777591
798,0,19000,5777591
780,0,19000,5777591
780,0,19000,5777591
780,0,19000,5777591
762,0,19000,5777591
762,0,19000,5777591
744,0,19000,5777591
744,0,19000,5777591
726,0,19000,5777591
643,0,19000,5793218
612,0,19000,5793218
612,0,19000,5793218
597,0,19000,5793218
597,0,19000,5793218
597,0,19000,5793218
582,0,19000,5793218
582,0,19000,5793218
567,0,19000,5793218
567,0,19000,5793218
553,0,19000,5793218
484,0,19000,5808846
472,0,19000,5808846
459,0,19000,5808846
459,0,19000,5808846
459,0,19000,5808846
447,0,19000,5808846
447,0,19000,5808846
436,0,19000,5808846
436,0,19000,5808846
424,0,19000,5808846
369,0,19000,5824475
349,0,19000,5824475
349,0,19000,5824475
339,0,19000,5824475
339,0,19000,5824475
330,0,19000,5824475
330,0,19000,5824475
330,0,19000,5824475
320,0,19000,5824475
320,0,19000,5824475
270,0,19000,5840065
254,0,19000,5840065
254,0,19000,5840065
247,0,19000,5840065
247,0,19000,5840065
240,0,19000,5840065
240,0,19000,5840065
233,0,19000,5840065
233,0,19000,5840065
226,0,19000,5840065
226,0,19000,5840065
199,0,19000,5855723
194,0,19000,5855723
184,0,19000,5855723
184,0,19000,5855723
179,0,19000,5855723
179,0,19000,5855723
179,0,19000,5855723
174,0,19000,5855723
174,0,19000,5855723
169,0,19000,5855723
145,0,19000,5871354
136,0,19000,5871354
136,0,19000,5871354
132,0,19000,5871354
129,0,19000,5871354
129,0,19000,5871354
129,0,19000,5871354
124,0,19000,5871354
124,0,19000,5871354
124,0,19000,5871354
121,0,19000,5871354
107,0,19000,5886978
103,0,19000,5886978
100,0,19000,5886978
100,0,19000,5886978
97,0,19000,5886978
96,0,19000,5886978
96,0,19000,5886978
96,0,19000,5886978
93,0,19000,5886978
93,0,19000,5886978
83,0,19000,5902605
79,0,19000,5902605
79,0,19000,5902605
78,0,19000,5902605
78,0,19000,5902605
77,0,19000,5902605
77,0,19000,5902605
75,0,19000,5902605
75,0,19000,5902605
74,0,19000,5902605
74,0,19000,5902605
69,0,19000,5918230
66,0,19000,5918230
66,0,19000,5918230
65,0,19000,5918230
65,0,19000,5918230
65,0,19000,5918230
65,0,19000,5918230
65,0,19000,5918230
64,0,19000,5918230
64,0,19000,5918230
61,0,19000,5933857
61,0,19000,5933857
60,0,19000,5933857
60,0,19000,5933857
59,0,19000,5933857
59,0,19000,5933857
59,0,19000,5933857
58,0,19000,5933857
58,0,19000,5933857
57,0,19000,5933857
55,0,19000,5949485
55,0,19000,5949485
54,0,19000,5949485
54,0,19000,5949485
53,0,19000,5949485
53,0,19000,5949485
53,0,19000,5949485
53,0,19000,5949485
53,0,19000,5949485
53,0,19000,5949485
53,0,19000,5949485
51,0,19000,5965114
51,0,19000,5965114
51,0,19000,5965114
52,0,19000,5965114
52,0,19000,5965114
52,0,19000,5965114
52,0,19000,5965114
52,0,19000,5965114
51,0,19000,5965114
52,0,19000,5965114
51,0,19000,5980737
51,0,19000,5980737
51,0,19000,5980737
51,0,19000,5980737
51,0,19000,5980737
51,0,19000,5980737
51,0,19000,5980737
51,0,19000,5980737
51,0,19000,5980737
51,0,19000,5980737
51,0,19000,5980737
51,0,19000,5996364
51,0,19000,5996364
51,0,19000,5996364
51,0,19000,5996364
52,0,19000,5996364
52,0,19000,5996364
52,0,19000,5996364
52,0,19000,5996364
52,0,19000,5996364
52,0,19000,5996364
51,0,19000,6011992
50,0,19000,6011992
50,0,19000,6011992
50,0,19000,6011992
50,0,19000,6011992
50,0,19000,6011992
50,0,19000,6011992
50,0,19000,6011992
50,0,19000,6011992
50,0,19000,6011992
49,0,19000,6027620
49,0,19000,6027620
49,0,19000,6027620
49,0,19000,6027620
49,0,19000,6027620
49,0,19000,6027620
50,0,19000,6027620
50,0,19000,6027620
50,0,19000,6027620
50,0,19000,6027620
49,0,19000,6027620
51,0,19000,6043214
50,0,19000,6043214
50,0,19000,6043214
50,0,19000,6043214
50,0,19000,6043214
50,0,19000,6043214
50,0,19000,6043214
50,0,19000,6043214
50,0,19000,6043214
50,0,19000,6043214
50,0,19000,6058876
50,0,19000,6060051
49,0,19000,6061061
50,0,19000,6062059
50,0,19000,6063058
50,0,19000,6064061
49,0,19000,6065063
49,0,19000,6065840
49,0,19000,6066889
49,0,19000,6067740
49,0,19000,6067740
49,0,19000,6068774
49,0,19000,6068774
49,0,19000,6068774
48,0,19000,6068774
48,0,19000,6068774
47,0,19000,6068774
51,0,19000,6084401
50,0,19000,6084401
50,0,19000,6084401
50,0,19000,6084401
50,0,19000,6084401
50,0,19000,6084401
51,0,19000,6084401
51,0,19000,6084401
50,0,19000,6084401
50,0,19000,6084401
50,0,19000,6084401
50,0,19000,6100027
50,0,19000,6100027
50,0,19000,6100027
50,0,19000,6100027
50,0,19000,6100027
50,0,19000,6100027
50,0,19000,6100027
50,0,19000,6100027
50,0,19000,6100027
49,0,19000,6100027
49,0,19000,6115654
51,0,19000,6115654
51,0,19000,6115654
51,0,19000,6115654
51,0,19000,6115654
51,0,19000,6115654
51,0,19000,6115654
51,0,19000,6115654
50,0,19000,6115654
50,0,19000,6115654
49,0,19000,6115654
50,0,19000,6131282
49,0,19000,6131282
49,0,19000,6131282
49,0,19000,6131282
50,0,19000,6131282
50,0,19000,6131282
49,0,19000,6131282
49,0,19000,6131282
49,0,19000,6131282
50,0,19000,6131282
51,0,19000,6146908
52,0,19000,6146908
53,0,19000,6146908
53,0,19000,6146908
52,0,19000,6146908
52,0,19000,6146908
52,0,19000,6146908
52,0,19000,6146908
52,0,19000,6146908
52,0,19000,6146908
50,0,19000,6162535
49,0,19000,6162535
49,0,19000,6162535
49,0,19000,6162535
49,0,19000,6162535
49,0,19000,6162535
49,0,19000,6162535
49,0,19000,6162535
49,0,19000,6162535
49,0,19000,6162535
49,0,19000,6162535
48,0,19000,6178161
48,0,19000,6178161
48,0,19000,6178161
48,0,19000,6178161
48,0,19000,6178161
48,0,19000,6178161
48,0,19000,6178161
48,0,19000,6178161
48,0,19000,6178161
48,0,19000,6178161
47,0,19000,6193788
48,0,19000,6193788
48,0,19000,6193788
49,0,19000,6193788
49,0,19000,6193788
48,0,19000,6193788
48,0,19000,6193788
48,0,19000,6193788
48,0,19000,6193788
48,0,19000,6193788
49,0,19000,6193788
48,0,19000,6209415
49,0,19000,6209415
49,0,19000,6209415
49,0,19000,6209415
49,0,19000,6209415
50,0,19000,6209415
50,0,19000,6209415
49,0,19000,6209415
49,0,19000,6209415
49,0,19000,6209415
50,0,19000,6225043
50,0,19000,6225043
50,0,19000,6225043
50,0,19000,6225043
50,0,19000,6225043
50,0,19000,6225043
50,0,19000,6225043
50,0,19000,6225043
50,0,19000,6225043
50,0,19000,6225043
51,0,19000,6225043
52,0,19000,6240668
52,0,19000,6240668
52,0,19000,6240668
53,0,19000,6240668
53,0,19000,6240668
53,0,19000,6240668
52,0,19000,6240668
52,0,19000,6240668
52,0,19000,6240668
52,0,19000,6240668
52,0,19000,6256294
52,0,19000,6256294
53,0,19000,6256294
52,0,19000,6256294
52,0,19000,6256294
52,0,19000,6256294
53,0,19000,6256294
53,0,19000,6256294
53,0,19000,6256294
52,0,19000,6256294
52,0,19000,6271924
52,0,19000,6271924
52,0,19000,6271924
52,0,19000,6271924
52,0,19000,6271924
52,0,19000,6271924
52,0,19000,6271924
52,0,19000,6271924
52,0,19000,6271924
52,0,19000,6271924
51,0,19000,6271924
52,0,19000,6287547
52,0,19000,6287547
52,0,19000,6287547
52,0,19000,6287547
51,0,19000,6287547
51,0,19000,6287547
51,0,19000,6287547
51,0,19000,6287547
51,0,19000,6287547
50,0,19000,6287547
49,0,19000,6303175
49,0,19000,6303175
49,0,19000,6303175
49,0,19000,6303175
49,0,19000,6303175
50,0,19000,6303175
50,0,19000,6303175
51,0,19000,6303175
51,0,19000,6303175
50,0,19000,6303175
50,0,19000,6303175
49,0,19000,6318801
49,0,19000,6318801
48,0,19000,6318801
48,0,19000,6318801
48,0,19000,6318801
48,0,19000,6318801
48,0,19000,6318801
48,0,19000,6318801
48,0,19000,6318801
48,0,19000,6318801
50,0,19000,6334428
49,0,19000,6334428
49,0,19000,6334428
49,0,19000,6334428
49,0,19000,6334428
50,0,19000,6334428
50,0,19000,6334428
50,0,19000,6334428
50,0,19000,6334428
51,0,19000,6334428
51,0,19000,6350054
50,0,19000,6350054
50,0,19000,6350054
51,0,19000,6350054
51,0,19000,6350054
50,0,19000,6350054
50,0,19000,6350054
50,0,19000,6350054
50,0,19000,6350054
49,0,19000,6350054
49,0,19000,6350054
49,0,19000,6365681
49,0,19000,6365681
49,0,19000,6365681
49,0,19000,6365681
49,0,19000,6365681
49,0,19000,6365681
48,0,19000,6365681
48,0,19000,6365681
48,0,19000,6365681
48,0,19000,6365681
49,0,19000,6381308
49,0,19000,6381308
49,0,19000,6381308
49,0,19000,6381308
49,0,19000,6381308
49,0,19000,6381308
50,0,19000,6381308
50,0,19000,6381308
50,0,19000,6381308
50,0,19000,6381308
50,0,19000,6381308
50,0,19000,6396938
51,0,19000,6396938
50,0,19000,6396938
50,0,19000,6396938
50,0,19000,6396938
50,0,19000,6396938
49,0,19000,6396938
49,0,19000,6396938
50,0,19000,6396938
50,0,19000,6396938
50,0,19000,6412562
50,0,19000,6412562
50,0,19000,6412562
50,0,19000,6412562
49,0,19000,6412562
49,0,19000,6412562
49,0,19000,6412562
49,0,19000,6412562
49,0,19000,6412562
49,0,19000,6412562
49,0,19000,6412562
50,0,19000,6428188
49,0,19000,6428188
50,0,19000,6428188
50,0,19000,6428188
50,0,19000,6428188
50,0,19000,6428188
50,0,19000,6428188
50,0,19000,6428188
50,0,19000,6428188
51,0,19000,6428188
51,0,19000,6443815
51,0,19000,6443815
51,0,19000,6443815
51,0,19000,6443815
51,0,19000,6443815
51,0,19000,6443815
51,0,19000,6443815
51,0,19000,6443815
51,0,19000,6443815
50,0,19000,6443815
49,0,19000,6459442
50,0,19000,6459442
50,0,19000,6459442
50,0,19000,6459442
50,0,19000,6459442
51,0,19000,6459442
51,0,19000,6459442
51,0,19000,6459442
51,0,19000,6459442
51,0,19000,6459442
50,0,19000,6459442
52,0,19000,6475068
52,0,19000,6475068
52,0,19000,6475068
52,0,19000,6475068
52,0,19000,6475068
52,0,19000,6475068
52,0,19000,6475068
52,0,19000,6475068
52,0,19000,6475068
52,0,19000,6475068
50,0,19000,6490701
51,0,19000,6490701
51,0,19000,6490701
51,0,19000,6490701
52,0,19000,6490701
52,0,19000,6490701
52,0,19000,6490701
52,0,19000,6490701
52,0,19000,6490701
52,0,19000,6490701
52,0,19000,6490701
51,0,19000,6506321
50,0,19000,6506321
50,0,19000,6506321
50,0,19000,6506321
50,0,19000,6506321
50,0,19000,6506321
50,0,19000,6506321
50,0,19000,6506321
50,0,19000,6506321
50,0,19000,6506321
49,0,19000,6521948
49,0,19000,6521948
50,0,19000,6521948
50,0,19000,6521948
50,0,19000,6521948
50,0,19000,6521948
49,0,19000,6521948
49,0,19000,6521948
49,0,19000,6521948
48,0,19000,6521948
50,0,19000,6537574
50,0,19000,6537574
49,0,19000,6537574
49,0,19000,6537574
49,0,19000,6537574
50,0,19000,6537574
50,0,19000,6537574
50,0,19000,6537574
50,0,19000,6537574
50,0,19000,6537574
50,0,19000,6537574
50,0,19000,6553201
50,0,19000,6553201
51,0,19000,6553201
51,0,19000,6553201
51,0,19000,6553201
51,0,19000,6553201
50,0,19000,6553201
50,0,19000,6553201
50,0,19000,6553201
50,0,19000,6553201
52,0,19000,6568828
51,0,19000,6568828
51,0,19000,6568828
51,0,19000,6568828
51,0,19000,6568828
51,0,19000,6568828
52,0,19000,6568828
52,0,19000,6568828
52,0,19000,6568828
52,0,19000,6568828
53,0,19000,6568828
55,0,19000,6584455
54,0,19000,6584455
54,0,19000,6584455
54,0,19000,6584455
54,0,19000,6584455
53,0,19000,6584455
53,0,19000,6584455
53,0,19000,6584455
53,1,19000,6584455
53,1,19000,6584455
54,5,19000,6600081
53,11,19000,6600081
53,11,19000,6600081
52,17,19000,6600081
52,17,19000,6600081
52,17,19000,6600081
52,26,19000,6600081
52,26,19000,6600081
53,37,19000,6600081
53,49,19000,6600081
53,49,19000,6600081
52,120,19000,6615708
52,134,19000,6615708
52,149,19000,6615708
52,149,19000,6615708
53,164,19000,6615708
53,164,19000,6615708
53,164,19000,6615708
52,178,19000,6615708
52,178,19000,6615708
52,178,19000,6615708
53,271,18993,6631335
53,282,18993,6631335
53,282,18990,6631335
53,293,18990,6631335
53,293,18990,6631335
53,293,18988,6631335
53,303,18988,6631335
53,303,18988,6631335
53,303,18984,6631335
54,312,18984,6631335
55,355,18956,6646961
55,361,18951,6646961
55,366,18946,6646961
54,370,18946,6646961
54,370,18941,6646961
54,375,18941,6646961
54,375,18941,6646961
54,378,18936,6646961
54,378,18936,6646961
54,378,18936,6646961
53,381,18930,6646961
53,388,18903,6662588
53,389,18897,6662588
53,389,18892,6662588
53,389,18892,6662588
53,389,18892,6662588
52,389,18886,6662588
52,389,18886,6662588
52,389,18880,6662588
53,388,18880,6662588
53,388,18880,6662588
54,424,18831,6678215
54,451,18831,6678215
54,451,18823,6678215
54,466,18823,6678215
54,466,18815,6678215
54,484,18815,6678215
54,484,18815,6678215
54,484,18807,6678215
54,503,18807,6678215
54,503,18798,6678215
53,524,18798,6678215
54,627,18743,6693844
54,647,18730,6693844
54,647,18716,6693844
55,667,18716,6693844
55,667,18702,6693844
54,687,18702,6693844
54,687,18702,6693844
54,687,18702,6693844
53,706,18687,6693844
53,706,18687,6693844
54,809,18569,6709468
54,837,18550,6709468
54,837,18531,6709468
54,850,18531,6709468
54,850,18531,6709468
53,862,18511,6709468
53,862,18511,6709468
53,862,18491,6709468
53,874,18491,6709468
53,874,18491,6709468
52,926,18343,6725095
52,932,18321,6725095
52,939,18321,6725095
52,944,18298,6725095
52,944,18298,6725095
52,944,18276,6725095
52,948,18276,6725095
52,948,18253,6725095
51,952,18253,6725095
51,952,18230,6725095
52,955,18230,6725095
51,964,18092,6740721
51,965,18092,6740721
51,965,18069,6740721
50,965,18069,6740721
50,965,18046,6740721
50,965,18046,6740721
50,965,18046,6740721
50,965,18023,6740721
50,964,18023,6740721
50,964,18023,6740721
50,953,17862,6756348
50,950,17839,6756348
51,948,17839,6756348
51,948,17817,6756348
51,945,17817,6756348
51,945,17794,6756348
50,941,17794,6756348
50,941,17794,6756348
51,937,17772,6756348
51,937,17772,6756348
51,937,17750,6756348
49,914,17640,6771974
50,910,17619,6771974
50,906,17619,6771974
50,906,17597,6771974
50,901,17597,6771974
50,901,17576,6771974
50,896,17576,6771974
50,896,17576,6771974
50,896,17555,6771974
50,892,17555,6771974
49,863,17412,6787602
49,858,17392,6787602
49,853,17392,6787602
49,848,17372,6787602
49,843,17353,6787602
49,843,17353,6787602
49,843,17333,6787602
49,838,17333,6787602
49,838,17333,6787602
49,833,17314,6787602
49,833,17314,6787602
52,813,17220,6803228
52,809,17201,6803228
51,804,17201,6803228
51,804,17201,6803228
51,799,17183,6803228
51,799,17165,6803228
52,794,17165,6803228
52,794,17147,6803228
52,790,17147,6803228
52,790,17147,6803228
50,767,17042,6818854
51,759,17025,6818854
51,759,17008,6818854
51,755,17008,6818854
51,755,17008,6818854
51,755,16992,6818854
52,751,16992,6818854
52,751,16975,6818854
51,747,16975,6818854
51,747,16958,6818854
51,724,16846,6834481
51,718,16846,6834481
51,718,16830,6834481
51,715,16830,6834481
51,715,16815,6834481
52,712,16815,6834481
52,712,16815,6834481
52,709,16799,6834481
52,709,16784,6834481
51,706,16769,6834481
52,703,16769,6834481
52,694,16708,6850108
51,691,16693,6850108
50,689,16693,6850108
50,689,16679,6850108
51,686,16679,6850108
51,686,16679,6850108
51,683,16664,6850108
51,683,16664,6850108
51,683,16649,6850108
51,681,16649,6850108
50,667,16549,6865735
49,666,16535,6865735
50,664,16535,6865735
50,664,16521,6865735
49,661,16521,6865735
49,661,16521,6865735
49,661,16507,6865735
49,659,16507,6865735
49,659,16493,6865735
49,657,16493,6865735
49,657,16479,6865735
50,648,16411,6881361
49,646,16398,6881361
50,644,16398,6881361
50,644,16385,6881361
50,643,16385,6881361
50,643,16385,6881361
50,643,16371,6881361
51,641,16371,6881361
51,641,16371,6881361
51,641,16358,6881361
50,645,16251,6896988
50,652,16251,6896988
50,652,16238,6896988
50,656,16238,6896988
50,656,16224,6896988
51,660,16224,6896988
51,660,16224,6896988
51,660,16210,6896988
50,664,16210,6896988
50,664,16196,6896988
50,689,16109,6912615
50,696,16109,6912615
50,696,16094,6912615
50,704,16094,6912615
50,704,16079,6912615
50,712,16079,6912615
50,712,16079,6912615
50,712,16064,6912615
50,721,16064,6912615
50,721,16064,6912615
50,721,16048,6912615
49,777,15947,6928242
49,794,15930,6928242
49,794,15912,6928242
49,802,15912,6928242
49,802,15912,6928242
49,802,15893,6928242
48,808,15893,6928242
48,808,15875,6928242
48,814,15875,6928242
48,814,15875,6928242
50,836,15742,6943869
50,838,15742,6943869
50,838,15723,6943869
50,838,15723,6943869
50,838,15723,6943869
50,838,15704,6943869
50,838,15704,6943869
50,838,15684,6943869
49,836,15684,6943869
49,836,15665,6943869
50,834,15665,6943869
52,812,15534,6959500
51,800,15534,6959500
51,800,15516,6959500
51,793,15516,6959500
51,793,15516,6959500
51,786,15498,6959500
51,786,15498,6959500
51,786,15498,6959500
51,778,15480,6959500
51,778,15480,6959500
52,720,15364,6975140
52,710,15348,6975140
53,700,15348,6975140
53,700,15333,6975140
53,689,15333,6975140
53,689,15318,6975140
52,678,15318,6975140
52,678,15318,6975140
52,678,15318,6975140
52,667,15304,6975140
52,667,15304,6975140
50,608,15225,6990748
49,597,15213,6990748
49,585,15213,6990748
49,585,15201,6990748
48,574,15201,6990748
48,574,15190,6990748
49,562,15190,6990748
49,562,15190,6990748
50,550,15179,6990748
50,550,15168,6990748
51,480,15113,7006375
50,469,15113,7006375
50,458,15104,7006375
50,458,15097,7006375
50,447,15097,7006375
50,447,15097,7006375
50,435,15089,7006375
50,435,15089,7006375
50,435,15082,7006375
50,424,15082,7006375
48,371,15047,7022001
47,361,15047,7022001
48,352,15042,7022001
48,352,15037,7022001
48,342,15037,7022001
48,342,15033,7022001
49,332,15033,7022001
49,332,15033,7022001
49,332,15029,7022001
50,322,15029,7022001
50,322,15025,7022001
49,269,15009,7037628
50,261,15008,7037628
50,253,15008,7037628
50,253,15006,7037628
50,245,15005,7037628
50,237,15005,7037628
50,237,15004,7037628
50,229,15004,7037628
50,229,15004,7037628
50,229,15003,7037628
51,193,15002,7053254
52,179,15002,7054502
52,179,15002,7055504
52,173,15002,7056506
52,173,15002,7057509
52,173,15002,7058514
52,167,15002,7059516
52,160,15002,7060517
52,160,15002,7060517
52,160,15002,7061520
51,154,15002,7062522
51,154,15002,7063525
51,148,15002,7063525
51,148,15002,7064528
51,148,15002,7065539
51,143,15002,7066534
51,143,15002,7067536
51,137,15002,7067536
51,137,15002,7068566
52,132,15002,7068566
52,132,15002,7068566
52,79,15002,7084194
52,75,15002,7084194
52,71,15002,7084194
52,71,15002,7084194
52,68,15002,7084194
52,68,15002,7084194
52,65,15002,7084194
52,65,15002,7084194
52,65,15002,7084194
52,61,15002,7084194
50,45,15002,7099820
50,43,15002,7099820
50,41,15002,7099820
50,41,15002,7099820
50,41,15002,7099820
50,39,15002,7099820
50,39,15002,7099820
50,37,15002,7099820
50,37,15002,7099820
51,36,15002,7099820
51,34,15002,7099820
52,26,15002,7115451
53,25,15002,7115451
53,24,15002,7115451
53,24,15002,7115451
53,23,15002,7115451
53,23,15002,7115451
53,23,15002,7115451
53,21,15002,7115451
53,21,15002,7115451
53,21,15002,7115451
52,15,15002,7131074
53,14,15002,7131074
53,14,15002,7131074
52,13,15002,7131074
52,13,15002,7131074
53,13,15002,7131074
53,13,15002,7131074
53,13,15002,7131074
52,12,15002,7131074
52,12,15002,7131074
52,11,15002,7131074
50,9,15002,7146700
50,8,15002,7146700
50,7,15002,7146700
50,7,15002,7146700
51,7,15002,7146700
51,7,15002,7146700
51,7,15002,7146700
51,7,15002,7146700
51,6,15002,7146700
51,6,15002,7146700
51,5,15002,7162327
51,4,15002,7162327
52,4,15002,7162327
52,4,15002,7162327
51,6,15002,7162327
51,6,15002,7162327
51,6,15002,7162327
51,8,15002,7162327
51,8,15002,7162327
51,8,15002,7162327
50,51,15002,7177954
50,60,15002,7177954
50,60,15002,7177954
51,70,15002,7177954
51,70,15002,7177954
51,81,15002,7177954
51,81,15002,7177954
51,93,15002,7177954
51,93,15002,7177954
52,106,15002,7177954
52,106,15002,7177954
52,171,15002,7193581
53,195,15002,7193581
53,195,15002,7193581
52,207,15002,7193581
52,207,15002,7193581
52,207,15002,7193581
52,218,15002,7193581
52,218,15002,7193581
52,229,15001,7193581
52,229,15001,7193581
52,282,14987,7209208
51,295,14984,7209208
51,300,14984,7209208
51,300,14981,7209208
50,305,14981,7209208
50,305,14981,7209208
50,305,14978,7209208
49,310,14978,7209208
49,310,14978,7209208
50,314,14975,7209208
50,314,14975,7209208
49,323,14953,7224833
51,325,14950,7224833
51,325,14946,7224833
51,325,14946,7224833
51,325,14942,7224833
50,324,14942,7224833
50,324,14942,7224833
50,324,14942,7224833
49,323,14938,7224833
49,323,14938,7224833
48,311,14917,7240460
49,305,14914,7240460
49,305,14911,7240460
50,302,14911,7240460
50,302,14908,7240460
49,298,14908,7240460
49,298,14908,7240460
49,298,14905,7240460
50,294,14905,7240460
50,294,14905,7240460
50,267,14889,7256087
51,263,14889,7256087
51,263,14887,7256087
52,253,14885,7256087
52,253,14883,7256087
52,248,14883,7256087
52,248,14883,7256087
51,243,14882,7256087
51,243,14882,7256087
51,243,14881,7256087
51,237,14881,7256087
51,217,14877,7271714
52,207,14877,7271714
52,207,14877,7271714
53,202,14877,7271714
53,202,14877,7271714
52,197,14877,7271714
52,197,14877,7271714
53,191,14877,7271714
53,191,14877,7271714
53,191,14877,7271714
53,159,14877,7287340
53,150,14877,7287340
53,150,14877,7287340
53,150,14877,7287340
53,147,14877,7287340
53,147,14877,7287340
53,144,14877,7287340
53,144,14877,7287340
54,142,14877,7287340
54,142,14877,7287340
52,140,14877,7287340
51,137,14877,7302967
51,138,14877,7302967
51,138,14877,7302967
52,142,14877,7302967
52,142,14877,7302967
52,142,14877,7302967
51,151,14877,7302967
51,163,14877,7302967
51,163,14877,7302967
51,163,14877,7302967
51,301,14870,7318593
51,329,14866,7318593
51,357,14866,7318593
51,357,14862,7318593
51,387,14862,7318593
51,387,14862,7318593
51,419,14856,7318593
51,419,14849,7318593
51,454,14849,7318593
51,454,14842,7318593
52,489,14842,7318593
52,633,14773,7334220
51,700,14773,7334220
51,700,14758,7334220
51,734,14758,7334220
51,734,14758,7334220
51,734,14742,7334220
52,766,14742,7334220
52,766,14742,7334220
52,766,14725,7334220
52,796,14707,7334220
54,950,14581,7349848
53,969,14558,7349848
53,987,14558,7349848
53,987,14558,7349848
53,987,14534,7349848
53,1004,14534,7349848
53,1004,14534,7349848
53,1004,14510,7349848
52,1018,14510,7349848
52,1018,14485,7349848
53,1024,14310,7365474
54,1024,14285,7365474
54,1024,14285,7365474
54,1024,14260,7365474
53,1024,14260,7365474
53,1024,14260,7365474
53,1024,14235,7365474
53,1024,14235,7365474
53,1024,14235,7365474
53,1024,14210,7365474
53,1024,14210,7365474
52,1024,14060,7381100
51,1024,14060,7381100
51,1024,14035,7381100
51,1024,14035,7381100
51,1024,14010,7381100
51,1023,14010,7381100
51,1023,14010,7381100
51,1023,13985,7381100
51,1012,13985,7381100
51,1012,13960,7381100
52,927,13799,7396727
52,914,13799,7396727
52,914,13777,7396727
52,901,13777,7396727
52,901,13756,7396727
52,887,13756,7396727
52,887,13735,7396727
52,872,13735,7396727
52,872,13735,7396727
52,872,13715,7396727
51,858,13715,7396727
52,784,13602,7412354
52,769,13585,7412354
53,755,13585,7412354
53,755,13568,7412354
53,740,13568,7412354
53,740,13568,7412354
53,740,13552,7412354
52,725,13552,7412354
52,725,13536,7412354
52,710,13536,7412354
51,637,13450,7427981
50,610,13437,7427981
50,610,13425,7427981
49,596,13425,7427981
49,596,13413,7427981
50,582,13413,7427981
50,582,13413,7427981
50,582,13401,7427981
50,569,13401,7427981
50,569,13390,7427981
50,491,13323,7443607
49,467,13323,7443607
49,467,13315,7443607
50,455,13315,7443607
50,455,13315,7443607
50,455,13308,7443607
49,443,13308,7443607
49,443,13308,7443607
49,443,13301,7443607
50,431,13301,7443607
50,431,13294,7443607
51,367,13259,7459238
52,357,13254,7459238
52,347,13250,7459238
52,338,13250,7459238
52,338,13246,7459238
53,328,13246,7459238
53,328,13242,7459238
52,319,13242,7459238
52,319,13242,7459238
52,319,13238,7459238
51,274,13223,7474860
52,251,13221,7474860
52,251,13219,7474860
51,243,13219,7474860
51,243,13218,7474860
51,235,13218,7474860
51,235,13217,7474860
52,229,13217,7474860
52,229,13217,7474860
52,229,13217,7474860
51,222,13216,7474860
53,200,13215,7490488
52,187,13215,7490488
52,187,13215,7490488
52,181,13215,7490488
53,175,13215,7490488
53,175,13215,7490488
53,175,13215,7490488
53,169,13215,7490488
53,169,13215,7490488
53,169,13215,7490488
52,136,13215,7506113
51,131,13215,7506113
51,126,13215,7506113
51,122,13215,7506113
51,117,13215,7506113
51,117,13215,7506113
51,113,13215,7506113
51,113,13215,7506113
51,108,13215,7506113
51,108,13215,7506113
51,108,13215,7506113
51,87,13215,7521740
50,83,13215,7521740
50,80,13215,7521740
50,76,13215,7521740
50,76,13215,7521740
50,72,13215,7521740
50,72,13215,7521740
50,72,13215,7521740
50,69,13215,7521740
50,69,13215,7521740
51,51,13215,7537366
51,49,13215,7537366
51,49,13215,7537366
50,46,13215,7537366
50,46,13215,7537366
50,44,13215,7537366
50,42,13215,7537366
50,42,13215,7537366
50,40,13215,7537366
50,40,13215,7537366
51,29,13215,7552993
51,28,13215,7552993
51,26,13215,7552993
51,26,13215,7552993
51,26,13215,7552993
51,25,13215,7552993
51,25,13215,7552993
52,24,13215,7552993
52,24,13215,7552993
51,23,13215,7552993
51,23,13215,7552993
50,18,13215,7568620
50,16,13215,7568620
50,16,13215,7568620
51,15,13215,7568620
51,15,13215,7568620
50,14,13215,7568620
50,14,13215,7568620
50,14,13215,7568620
50,14,13215,7568620
49,13,13215,7568620
49,10,13215,7584247
49,9,13215,7584247
49,9,13215,7584247
49,9,13215,7584247
50,8,13215,7584247
50,8,13215,7584247
49,8,13215,7584247
49,8,13215,7584247
49,8,13215,7584247
50,8,13215,7584247
49,7,13215,7584247
49,6,13215,7599874
49,6,13215,7599874
50,6,13215,7599874
50,5,13215,7599874
50,5,13215,7599874
50,5,13215,7599874
50,5,13215,7599874
50,5,13215,7599874
50,5,13215,7599874
49,4,13215,7599874
50,3,13215,7615501
51,3,13215,7615501
51,3,13215,7615501
51,3,13215,7615501
51,3,13215,7615501
51,3,13215,7615501
51,3,13215,7615501
51,3,13215,7615501
50,2,13215,7615501
50,2,13215,7615501
50,2,13215,7615501
49,2,13215,7631127
49,2,13215,7631127
49,2,13215,7631127
49,2,13215,7631127
49,2,13215,7631127
49,2,13215,7631127
49,2,13215,7631127
49,2,13215,7631127
50,1,13215,7631127
50,1,13215,7631127
50,1,13215,7646754
50,1,13215,7646754
50,1,13215,7646754
50,1,13215,7646754
50,1,13215,7646754
50,1,13215,7646754
50,1,13215,7646754
50,1,13215,7646754
50,1,13215,7646754
50,1,13215,7646754
49,1,13215,7662381
49,1,13215,7662381
49,0,13215,7662381
49,0,13215,7662381
49,0,13215,7662381
49,0,13215,7662381
50,0,13215,7662381
50,0,13215,7662381
50,0,13215,7662381
50,0,13215,7662381
50,0,13215,7662381
51,0,13215,7678007
51,0,13215,7678007
51,0,13215,7678007
51,0,13215,7678007
52,0,13215,7678007
52,0,13215,7678007
51,0,13215,7678007
51,0,13215,7678007
51,0,13215,7678007
51,0,13215,7678007
51,0,13215,7693634
51,0,13215,7693634
51,0,13215,7693634
51,0,13215,7693634
51,0,13215,7693634
51,0,13215,7693634
51,0,13215,7693634
51,0,13215,7693634
51,0,13215,7693634
51,0,13215,7693634
51,0,13215,7693634
51,0,13215,7709264
50,0,13215,7709264
50,0,13215,7709264
50,0,13215,7709264
49,0,13215,7709264
49,0,13215,7709264
49,0,13215,7709264
49,0,13215,7709264
49,0,13215,7709264
49,0,13215,7709264
51,0,13215,7724887
51,0,13215,7724887
51,0,13215,7724887
51,0,13215,7724887
51,0,13215,7724887
51,0,13215,7724887
51,0,13215,7724887
50,0,13215,7724887
50,0,13215,7724887
50,0,13215,7724887
50,0,13215,7740514
50,0,13215,7740514
49,0,13215,7740514
50,0,13215,7740514
50,0,13215,7740514
51,0,13215,7740514
51,0,13215,7740514
51,0,13215,7740514
51,0,13215,7740514
51,0,13215,7740514
51,0,13215,7740514
51,0,13215,7756140
52,0,13215,7756140
51,0,13215,7756140
51,0,13215,7756140
51,0,13215,7756140
51,0,13215,7756140
51,0,13215,7756140
51,0,13215,7756140
51,0,13215,7756140
51,0,13215,7756140
51,0,13215,7771767
50,0,13215,7771767
50,0,13215,7771767
51,0,13215,7771767
51,0,13215,7771767
51,0,13215,7771767
51,0,13215,7771767
50,0,13215,7771767
50,0,13215,7771767
50,0,13215,7771767
50,0,13215,7771767
50,0,13215,7787394
51,0,13215,7787394
51,0,13215,7787394
51,0,13215,7787394
51,0,13215,7787394
51,0,13215,7787394
51,0,13215,7787394
51,0,13215,7787394
51,0,13215,7787394
51,0,13215,7787394
52,0,13215,7803020
54,0,13215,7803020
54,0,13215,7803020
54,0,13215,7803020
55,0,13215,7803020
55,0,13215,7803020
55,0,13215,7803020
56,0,13215,7803020
58,0,13215,7803020
59,0,13215,7803020
61,0,13215,7803020
67,0,13215,7818647
69,0,13215,7818647
69,0,13215,7818647
71,0,13215,7818647
71,0,13215,7818647
71,0,13215,7818647
71,0,13215,7818647
72,0,13215,7818647
74,0,13215,7818647
74,0,13215,7818647
81,0,13215,7834274
81,0,13215,7834274
83,0,13215,7834274
83,0,13215,7834274
83,0,13215,7834274
83,0,13215,7834274
83,0,13215,7834274
83,0,13215,7834274
83,0,13215,7834274
83,0,13215,7834274
86,0,13215,7849900
86,0,13215,7849900
86,0,13215,7849900
86,0,13215,7849900
85,0,13215,7849900
85,0,13215,7849900
84,0,13215,7849900
84,0,13215,7849900
84,0,13215,7849900
83,0,13215,7849900
83,0,13215,7849900
77,0,13215,7865528
75,0,13215,7865528
75,0,13215,7865528
75,0,13215,7865528
74,0,13215,7865528
74,0,13215,7865528
74,0,13215,7865528
74,0,13215,7865528
72,0,13215,7865528
72,0,13215,7865528
67,0,13215,7881154
67,0,13215,7881154
66,0,13215,7881154
66,0,13215,7881154
66,0,13215,7881154
66,0,13215,7881154
66,0,13215,7881154
65,0,13215,7881154
65,0,13215,7881154
64,0,13215,7881154
64,0,13215,7881154
60,0,13215,7896780
59,0,13215,7896780
59,0,13215,7896780
59,0,13215,7896780
60,0,13215,7896780
60,0,13215,7896780
60,0,13215,7896780
59,0,13215,7896780
59,0,13215,7896780
58,0,13215,7896780
57,0,13215,7912407
57,0,13215,7912407
57,0,13215,7912407
57,0,13215,7912407
58,0,13215,7912407
58,0,13215,7912407
58,0,13215,7912407
58,0,13215,7912407
58,0,13215,7912407
57,0,13215,7912407
54,0,13215,7928034
53,0,13215,7928034
53,0,13215,7928034
53,0,13215,7928034
53,0,13215,7928034
54,0,13215,7928034
54,0,13215,7928034
54,0,13215,7928034
54,0,13215,7928034
54,0,13215,7928034
53,0,13215,7928034
53,0,13215,7943664
53,0,13215,7943664
53,0,13215,7943664
53,0,13215,7943664
53,0,13215,7943664
53,0,13215,7943664
53,0,13215,7943664
53,0,13215,7943664
53,0,13215,7943664
53,0,13215,7943664
53,0,13215,7959289
52,0,13215,7959289
53,0,13215,7959289
53,0,13215,7959289
53,0,13215,7959289
54,0,13215,7959289
54,0,13215,7959289
54,0,13215,7959289
54,0,13215,7959289
54,0,13215,7959289
54,0,13215,7959289
53,0,13215,7974914
53,0,13215,7974914
52,0,13215,7974914
52,0,13215,7974914
52,0,13215,7974914
52,0,13215,7974914
52,0,13215,7974914
52,0,13215,7974914
52,0,13215,7974914
52,0,13215,7974914
50,0,13215,7990540
49,0,13215,7990540
49,0,13215,7990540
49,0,13215,7990540
49,0,13215,7990540
49,0,13215,7990540
49,0,13215,7990540
48,0,13215,7990540
48,0,13215,7990540
48,0,13215,7990540
48,0,13215,7990540
47,0,13215,8006167
47,0,13215,8006167
47,0,13215,8006167
48,0,13215,8006167
48,0,13215,8006167
48,0,13215,8006167
48,0,13215,8006167
49,0,13215,8006167
49,0,13215,8006167
49,0,13215,8006167
49,0,13215,8021793
49,0,13215,8021793
49,0,13215,8021793
49,0,13215,8021793
49,0,13215,8021793
49,0,13215,8021793
50,0,13215,8021793
50,0,13215,8021793
50,0,13215,8021793
50,0,13215,8021793
49,0,13215,8037420
49,0,13215,8037420
50,0,13215,8037420
50,0,13215,8037420
50,0,13215,8037420
50,0,13215,8037420
50,0,13215,8037420
49,0,13215,8037420
49,0,13215,8037420
49,0,13215,8037420
49,0,13215,8037420
49,0,13215,8053047
49,0,13215,8054244
49,0,13215,8055246
49,0,13215,8056249
49,0,13215,8057253
50,0,13215,8058255
49,0,13215,8059260
50,0,13215,8060267
50,0,13215,8061263
50,0,13215,8062265
49,0,13215,8063268
49,0,13215,8063268
49,0,13215,8064271
49,0,13215,8065279
49,0,13215,8066276
49,0,13215,8066276
49,0,13215,8067278
49,0,13215,8068416
49,0,13215,8068416
49,0,13215,8068416
50,0,13215,8084042
50,0,13215,8084042
51,0,13215,8084042
51,0,13215,8084042
51,0,13215,8084042
51,0,13215,8084042
51,0,13215,8084042
51,0,13215,8084042
51,0,13215,8084042
50,0,13215,8084042
50,0,13215,8084042
49,0,13215,8099669
49,0,13215,8099669
49,0,13215,8099669
49,0,13215,8099669
49,0,13215,8099669
49,0,13215,8099669
49,0,13215,8099669
49,0,13215,8099669
49,0,13215,8099669
49,0,13215,8099669
49,0,13215,8115296
49,0,13215,8115296
50,0,13215,8115296
50,0,13215,8115296
49,0,13215,8115296
49,0,13215,8115296
49,0,13215,8115296
49,0,13215,8115296
49,0,13215,8115296
49,0,13215,8115296
50,0,13215,8115296
52,0,13215,8130922
52,0,13215,8130922
51,0,13215,8130922
51,0,13215,8130922
52,0,13215,8130922
52,0,13215,8130922
52,0,13215,8130922
52,0,13215,8130922
52,0,13215,8130922
52,0,13215,8130922
52,0,13215,8146549
51,0,13215,8146549
52,0,13215,8146549
52,0,13215,8146549
52,0,13215,8146549
53,0,13215,8146549
53,0,13215,8146549
53,0,13215,8146549
52,0,13215,8146549
52,0,13215,8146549
53,0,13215,8146549
52,0,13215,8162175
52,0,13215,8162175
52,0,13215,8162175
51,0,13215,8162175
51,0,13215,8162175
51,0,13215,8162175
51,0,13215,8162175
51,0,13215,8162175
51,0,13215,8162175
51,0,13215,8162175
50,0,13215,8177802
51,0,13215,8177802
50,0,13215,8177802
51,0,13215,8177802
51,0,13215,8177802
51,0,13215,8177802
51,0,13215,8177802
51,0,13215,8177802
51,0,13215,8177802
51,0,13215,8177802
52,0,13215,8193429
52,0,13215,8193429
52,0,13215,8193429
52,0,13215,8193429
51,0,13215,8193429
51,0,13215,8193429
51,0,13215,8193429
51,0,13215,8193429
51,0,13215,8193429
51,0,13215,8193429
51,0,13215,8193429
51,0,13215,8209055
50,0,13215,8209055
50,1,13215,8209055
50,1,13215,8209055
50,1,13215,8209055
49,3,13215,8209055
49,3,13215,8209055
48,5,13215,8209055
48,5,13215,8209055
48,5,13215,8209055
49,23,13215,8224682
49,26,13215,8224682
49,26,13215,8224682
48,30,13215,8224682
48,33,13215,8224682
48,33,13215,8224682
48,36,13215,8224682
48,36,13215,8224682
48,36,13215,8224682
48,40,13215,8224682
48,40,13215,8224682
48,57,13215,8240309
48,60,13215,8240309
48,63,13215,8240309
49,65,13215,8240309
49,65,13215,8240309
48,68,13215,8240309
48,68,13215,8240309
48,71,13215,8240309
48,71,13215,8240309
48,71,13215,8240309
49,87,13215,8255935
49,90,13215,8255935
50,92,13215,8255935
50,94,13215,8255935
49,96,13215,8255935
49,96,13215,8255935
49,96,13215,8255935
49,98,13215,8255935
49,98,13215,8255935
49,100,13215,8255935
48,108,13215,8271562
49,110,13215,8271562
49,111,13215,8271562
49,111,13215,8271562
49,112,13215,8271562
49,112,13215,8271562
47,114,13215,8271562
47,114,13215,8271562
47,115,13215,8271562
47,115,13215,8271562
47,116,13215,8271562
47,121,13215,8287188
48,121,13215,8287188
48,121,13215,8287188
48,122,13215,8287188
48,122,13215,8287188
48,123,13215,8287188
48,123,13215,8287188
48,123,13215,8287188
49,124,13215,8287188
49,124,13215,8287188
48,125,13215,8302815
47,126,13215,8302815
47,126,13215,8302815
48,126,13215,8302815
48,126,13215,8302815
48,126,13215,8302815
47,126,13215,8302815
47,126,13215,8302815
47,126,13215,8302815
47,126,13215,8302815
47,126,13215,8302815
47,126,13215,8318442
46,126,13215,8318442
47,127,13215,8318442
47,127,13215,8318442
47,126,13215,8318442
47,126,13215,8318442
47,127,13215,8318442
47,127,13215,8318442
48,127,13215,8318442
47,127,13215,8318442
47,128,13215,8334069
48,128,13215,8334069
48,128,13215,8334069
48,128,13215,8334069
48,128,13215,8334069
48,129,13215,8334069
48,129,13215,8334069
48,129,13215,8334069
48,129,13215,8334069
48,129,13215,8334069
48,129,13215,8334069
50,130,13215,8349695
49,130,13215,8349695
49,129,13215,8349695
49,129,13215,8349695
48,130,13215,8349695
48,130,13215,8349695
48,130,13215,8349695
48,130,13215,8349695
48,130,13215,8349695
49,130,13215,8349695
50,131,13215,8365323
50,131,13215,8365323
51,131,13215,8365323
50,131,13215,8365323
50,131,13215,8365323
50,131,13215,8365323
50,131,13215,8365323
50,131,13215,8365323
52,132,13215,8365323
52,132,13215,8365323
52,132,13215,8380949
52,131,13215,8380949
52,131,13215,8380949
52,131,13215,8380949
52,131,13215,8380949
51,131,13215,8380949
51,131,13215,8380949
51,131,13215,8380949
50,131,13215,8380949
50,131,13215,8380949
50,131,13215,8380949
52,132,13215,8396575
50,132,13215,8396575
50,132,13215,8396575
50,132,13215,8396575
50,132,13215,8396575
50,132,13215,8396575
50,132,13215,8396575
50,132,13215,8396575
50,132,13215,8396575
50,132,13215,8396575
49,133,13215,8412203
49,133,13215,8412203
48,133,13215,8412203
48,133,13215,8412203
48,133,13215,8412203
48,133,13215,8412203
48,133,13215,8412203
48,134,13215,8412203
48,134,13215,8412203
49,134,13215,8412203
49,134,13215,8412203
49,135,13215,8427832
50,134,13215,8427832
49,135,13215,8427832
50,135,13215,8427832
50,135,13215,8427832
50,135,13215,8427832
50,135,13215,8427832
50,135,13215,8427832
50,135,13215,8427832
50,135,13215,8427832
50,135,13215,8443459
50,135,13215,8443459
50,135,13215,8443459
50,135,13215,8443459
50,135,13215,8443459
50,135,13215,8443459
50,135,13215,8443459
50,135,13215,8443459
50,135,13215,8443459
50,135,13215,8443459
50,134,13215,8459082
50,133,13215,8459082
51,132,13215,8459082
51,132,13215,8459082
51,132,13215,8459082
51,131,13215,8459082
51,131,13215,8459082
51,131,13215,8459082
50,131,13215,8459082
50,131,13215,8459082
50,131,13215,8459082
49,129,13215,8474709
49,129,13215,8474709
49,129,13215,8474709
48,129,13215,8474709
48,129,13215,8474709
48,128,13215,8474709
48,128,13215,8474709
49,128,13215,8474709
49,128,13215,8474709
49,128,13215,8474709
51,126,13215,8490335
50,126,13215,8490335
50,126,13215,8490335
50,126,13215,8490335
50,126,13215,8490335
50,126,13215,8490335
50,126,13215,8490335
49,125,13215,8490335
49,125,13215,8490335
49,125,13215,8490335
50,125,13215,8490335
50,123,13215,8505962
50,123,13215,8505962
50,123,13215,8505962
50,122,13215,8505962
49,122,13215,8505962
49,122,13215,8505962
49,121,13215,8505962
49,121,13215,8505962
49,121,13215,8505962
49,121,13215,8505962
48,119,13215,8521589
47,119,13215,8521589
48,119,13215,8521589
48,119,13215,8521589
48,119,13215,8521589
48,119,13215,8521589
48,118,13215,8521589
49,118,13215,8521589
49,118,13215,8521589
49,118,13215,8521589
48,117,13215,8521589
49,116,13215,8537215
49,116,13215,8537215
49,116,13215,8537215
48,116,13215,8537215
48,116,13215,8537215
47,116,13215,8537215
47,116,13215,8537215
47,115,13215,8537215
47,115,13215,8537215
47,115,13215,8537215
49,115,13215,8552842
49,115,13215,8552842
49,115,13215,8552842
49,115,13215,8552842
49,115,13215,8552842
49,115,13215,8552842
49,115,13215,8552842
50,115,13215,8552842
50,115,13215,8552842
50,115,13215,8552842
49,114,13215,8568468
49,114,13215,8568468
49,114,13215,8568468
49,114,13215,8568468
49,114,13215,8568468
49,114,13215,8568468
49,114,13215,8568468
49,114,13215,8568468
49,114,13215,8568468
49,114,13215,8568468
49,114,13215,8568468
50,114,13215,8584096
50,114,13215,8584096
51,114,13215,8584096
51,114,13215,8584096
50,114,13215,8584096
50,114,13215,8584096
50,114,13215,8584096
50,113,13215,8584096
50,113,13215,8584096
50,113,13215,8584096
50,113,13215,8599723
49,113,13215,8599723
49,113,13215,8599723
49,113,13215,8599723
49,113,13215,8599723
49,113,13215,8599723
49,113,13215,8599723
49,113,13215,8599723
49,113,13215,8599723
49,113,13215,8599723
49,113,13215,8599723
52,113,13215,8615349
51,113,13215,8615349
51,112,13215,8615349
51,113,13215,8615349
51,113,13215,8615349
51,112,13215,8615349
51,112,13215,8615349
51,112,13215,8615349
52,112,13215,8615349
52,112,13215,8615349
51,111,13215,8630976
51,111,13215,8630976
51,111,13215,8630976
51,111,13215,8630976
51,111,13215,8630976
51,111,13215,8630976
51,111,13215,8630976
50,110,13215,8630976
50,110,13215,8630976
50,110,13215,8630976
50,109,13215,8646603
50,110,13215,8646603
50,109,13215,8646603
50,109,13215,8646603
50,109,13215,8646603
50,109,13215,8646603
50,109,13215,8646603
50,109,13215,8646603
50,109,13215,8646603
49,109,13215,8646603
49,109,13215,8646603
49,108,13215,8662229
51,107,13215,8662229
51,107,13215,8662229
51,107,13215,8662229
51,107,13215,8662229
51,107,13215,8662229
51,107,13215,8662229
51,107,13215,8662229
51,107,13215,8662229
51,107,13215,8662229
49,107,13215,8677857
49,106,13215,8677857
50,106,13215,8677857
50,106,13215,8677857
49,107,13215,8677857
49,107,13215,8677857
49,107,13215,8677857
49,107,13215,8677857
49,107,13215,8677857
49,107,13215,8677857
49,107,13215,8677857
49,107,13215,8693484
49,106,13215,8693484
48,106,13215,8693484
48,106,13215,8693484
48,106,13215,8693484
49,106,13215,8693484
49,106,13215,8693484
49,106,13215,8693484
49,106,13215,8693484
49,106,13215,8693484
49,106,13215,8709109
48,106,13215,8709109
47,106,13215,8709109
47,106,13215,8709109
47,106,13215,8709109
47,106,13215,8709109
46,105,13215,8709109
46,105,13215,8709109
47,105,13215,8709109
47,105,13215,8709109
47,105,13215,8709109
47,105,13215,8724736
47,104,13215,8724736
47,104,13215,8724736
47,104,13215,8724736
47,104,13215,8724736
47,104,13215,8724736
47,104,13215,8724736
47,104,13215,8724736
48,104,13215,8724736
48,104,13215,8724736
49,102,13215,8740365
48,101,13215,8740365
48,101,13215,8740365
48,101,13215,8740365
48,101,13215,8740365
48,101,13215,8740365
48,101,13215,8740365
48,101,13215,8740365
48,101,13215,8740365
48,101,13215,8740365
50,119,13215,8755989
49,137,13215,8755989
49,137,13215,8755989
49,148,13215,8755989
50,161,13215,8755989
50,161,13215,8755989
49,175,13215,8755989
49,175,13215,8755989
48,190,13215,8755989
48,190,13215,8755989
49,207,13215,8755989
50,262,13209,8771615
51,299,13209,8771615
51,299,13206,8771615
51,319,13206,8771615
51,319,13202,8771615
51,341,13198,8771615
51,363,13198,8771615
51,363,13193,8771615
50,386,13193,8771615
50,386,13193,8771615
50,516,13148,8787242
50,545,13138,8787242
51,574,13138,8787242
51,574,13126,8787242
51,605,13126,8787242
51,605,13114,8787242
50,638,13114,8787242
51,674,13101,8787242
51,674,13101,8787242
50,711,13086,8787242
50,711,13086,8787242
50,886,12996,8802871
50,979,12974,8802871
50,979,12974,8802871
50,979,12950,8802871
50,1024,12950,8802871
50,1024,12950,8802871
50,1024,12925,8802871
49,1024,12925,8802871
49,1024,12900,8802871
50,1024,12900,8802871
50,1024,12725,8818495
50,1024,12700,8818495
50,1024,12700,8818495
50,1024,12675,8818495
50,1024,12675,8818495
50,1024,12650,8818495
51,1024,12650,8818495
51,1024,12650,8818495
51,1024,12625,8818495
51,1024,12600,8818495
51,1024,12450,8834122
51,1024,12450,8834122
51,1024,12425,8834122
52,1024,12425,8834122
52,1024,12425,8834122
52,1024,12400,8834122
51,1024,12400,8834122
51,1024,12375,8834122
51,1024,12375,8834122
51,1024,12350,8834122
51,1024,12350,8834122
51,1024,12200,8849749
51,1024,12200,8849749
51,1024,12175,8849749
51,1024,12175,8849749
51,1024,12150,8849749
51,1024,12150,8849749
51,1024,12150,8849749
51,1024,12125,8849749
52,1024,12125,8849749
52,1024,12125,8849749
52,1024,11925,8865376
51,1024,11925,8865376
51,1024,11900,8865376
51,1024,11900,8865376
51,1024,11875,8865376
52,1024,11875,8865376
52,1024,11875,8865376
52,1024,11875,8865376
52,1024,11850,8865376
52,1024,11850,8865376
52,1024,11825,8865376
53,1024,11675,8881002
53,1024,11675,8881002
53,1024,11650,8881002
53,1024,11650,8881002
53,1024,11650,8881002
53,1024,11625,8881002
53,1024,11625,8881002
53,1024,11600,8881002
53,1024,11600,8881002
53,1024,11600,8881002
53,1024,11425,8896629
53,1024,11400,8896629
53,1024,11400,8896629
53,1024,11375,8896629
52,1024,11375,8896629
52,1024,11375,8896629
52,1024,11350,8896629
52,1024,11350,8896629
52,1024,11325,8896629
52,1024,11325,8896629
52,1024,11300,8896629
52,1024,11150,8912256
52,1024,11150,8912256
52,1024,11125,8912256
52,1024,11125,8912256
52,1024,11125,8912256
52,1024,11125,8912256
51,1024,11100,8912256
51,1024,11100,8912256
51,1024,11075,8912256
51,1024,11075,8912256
51,1024,10875,8927886
53,1020,10875,8927886
53,1020,10851,8927886
52,996,10851,8927886
52,996,10826,8927886
52,972,10826,8927886
52,972,10826,8927886
52,972,10803,8927886
52,948,10803,8927886
52,948,10780,8927886
52,813,10659,8943511
52,772,10642,8943511
52,772,10642,8943511
52,772,10624,8943511
51,752,10624,8943511
51,752,10624,8943511
51,752,10608,8943511
52,732,10608,8943511
52,732,10592,8943511
52,712,10592,8943511
52,712,10576,8943511
50,619,10495,8959136
50,585,10484,8959136
51,569,10484,8959136
51,569,10473,8959136
50,552,10473,8959136
50,552,10473,8959136
50,536,10462,8959136
50,536,10462,8959136
50,536,10452,8959136
49,521,10452,8959136
50,447,10408,8974762
50,447,10401,8974762
50,434,10394,8974762
51,421,10387,8974762
52,408,10387,8974762
52,408,10387,8974762
52,395,10381,8974762
52,395,10381,8974762
52,395,10375,8974762
52,382,10375,8974762
52,382,10369,8974762
51,325,10347,8990389
51,315,10344,8990389
52,304,10344,8990389
52,294,10341,8990389
52,294,10338,8990389
51,284,10338,8990389
51,284,10338,8990389
51,284,10336,8990389
51,275,10336,8990389
51,275,10333,8990389
50,222,10326,9006016
50,214,10326,9006016
50,214,10325,9006016
50,207,10325,9006016
50,207,10325,9006016
50,199,10325,9006016
50,192,10325,9006016
50,192,10325,9006016
49,185,10325,9006016
49,185,10325,9006016
49,178,10325,9006016
49,151,10325,9021642
49,145,10325,9021642
50,139,10325,9021642
50,133,10325,9021642
50,133,10325,9021642
50,133,10325,9021642
50,127,10325,9021642
50,122,10325,9021642
50,122,10325,9021642
50,116,10325,9021642
